<Actel_Data_File>
    <format name="NVM File" version="01.00.00"/>
    <header>
        <die>
            A2F200M3F
        </die>
        <family>
            SmartFusion
        </family>
        <module>
            envm
        </module>
        <package>
            484 FBGA
        </package>
        <version>
            9.1.3.4
        </version>
    </header>
    <nvm>
        <region name="eNVM" address="0x000000" retrieveAddressFromFile="false" size="33688" format="HEX" type="Data Storage" wordSize="32" numberWords="8422" memFile="D:\Work\marmote\projects\DDC_test\softconsole\ADC_DDC_DMA_UDP\Release\ADC_DDC_DMA_UDP.hex" memType="INTELHEX" memFileTimeStamp="1319122915" clientType="public" program="true">
            0000012099020000f9020000fb020000fd020000ff020000010300000000
            000000000000000000000000000003030000050300000000000007030000
            090300000b0300000d0300000f03000011030000130300008d4e00001703
            0000190300001b030000dd4800001f030000210300002303000025030000
            27030000290300002b0300002d0300002f03000031030000b90600003503
            000037030000390300003b03000000000000000000000000000000000000
            00000000000000003d0300003f0300004103000043030000450300004703
            0000490300004b0300004d0300004f030000510300005303000055030000
            57030000590300005b0300005d0300005f03000061030000630300006503
            000067030000690300006b0300006d0300006f0300007103000073030000
            7503000077030000790300007b0300007d0300007f030000810300008303
            00008503000087030000890300008b0300008d0300008f03000091030000
            930300009503000097030000990300009b0300009d0300009f030000a103
            0000a3030000a5030000a7030000a9030000ab030000ad030000af030000
            b1030000b3030000b5030000b7030000b9030000bb030000bd030000bf03
            0000c1030000c3030000c5030000c7030000c9030000cb030000cd030000
            cf030000d1030000d3030000d5030000d7030000d9030000db030000dd03
            0000df030000e1030000e3030000e5030000e7030000e9030000eb030000
            ed030000ef030000f1030000f3030000f5030000f7030000f9030000fb03
            0000fd030000ff0300000104000003040000050400000704000009040000
            0b0400000d0400000f040000110400001304000015040000170400001904
            00001b0400001d0400001f04000021040000230400002504000027040000
            2904000064488047644800280bd164486449654a884206d091421cbf50f8
            043b41f8043bf8d161486149624a884206d091421cbf50f8043b41f8043b
            f8d15e485e495f4a914218bf41f8040bfad15d480ff2030e00474ff00000
            4ff00001dff868f1fee7fee7fee7fee7fee7fee7fee7fee7fee7fee7fee7
            fee7fee7fee7fee7fee7fee7fee7fee7fee7fee7fee7fee7fee7fee7fee7
            fee7fee7fee7fee7fee7fee7fee7fee7fee7fee7fee7fee7fee7fee7fee7
            fee7fee7fee7fee7fee7fee7fee7fee7fee7fee7fee7fee7fee7fee7fee7
            fee7fee7fee7fee7fee7fee7fee7fee7fee7fee7fee7fee7fee7fee7fee7
            fee7fee7fee7fee7fee7fee7fee7fee7fee7fee7fee7fee7fee7fee7fee7
            fee7fee7fee7fee7fee7fee7fee7fee7fee7fee7fee7fee7fee7fee7fee7
            fee7fee7fee7fee7fee7fee7fee7fee7fee7fee7fee7fee7fee7fee7fee7
            fee7fee7fee7fee7fee7fee7fee7fee7fee7fee7fee7fee7fee7fee7fee7
            fee7fee7fee7fee7fee7fee7fee7fee7fee7fee7fee7fee7fee7fee7fee7
            fee7fee7fee7fee7fee7fee7fee7fee700008d6700000000000060040000
            600400006c7e00006c7e0000000000202c05002000000000300500208898
            00208d690000bd07000040f23053c2f200031a780ab901201870704700bf
            40f20000c2f2000008b503682bb140f20003c0f2000303b1984708bd0621
            f0b580f82210232180f82510102180f82610202180f82710302180f82810
            4af6c00c652189b080f82a1000256e21c0f2012c41f66d0240f2655380f8
            2b1080f8235080f82450c0f20002cdf81cc0c0f2000340f2315743f2d976
            4af6c00c426183616ff07f4ec0f2011c044607a906aa05abc0f20007c0f2
            0006cdf818e0cdf814c001970296009501f00ffd204601f0aafd204601f0
            d5fd284609b0f0bd322140f2dc5310b5038480f829100446ff2005f0d3fd
            04f0ddfb20f4017040f0a30005f033fd04f1230004f0e5ff002010bd00bf
            70b50e46adf5006d59b10c466d4628466168628906f030fa63892468ed18
            002cf5d1318968464ff0ff3205f039fa58b147f2c421c2f200010b880020
            5a1c0a8040b20df5006d70bdff20f9e7f0b5adf5805d81b04ff480516846
            002205f078f981b26e4629b90f46384601b00df5805df0bd0320024602f0
            0df80746a8b16e460446002560687119628906f0f5f963892468ed18adb2
            002cf4d147f2c420c2f2000041884a1c4280dee747f2c423c2f200039a89
            d9880132481cd8809a81d3e770b50546fff7c2ff044628b1294600f0d9fe
            10f0ff0f00d170bd2046bde8704001f062bf40f23853c2f2000318687047
            40f23852c2f20002936810b41c0e03f47f0c44ea036444ea1c2443f22411
            03f47f4c44ea0c24c2f20001000201334450936010bc704700bf40f23853
            c2f200031a7b6ab1587b45f25652411cc5f2555282fb010c0ceb4c02891a
            002059731873704700bf40f23853c2f2000330b4d3e90001012400250019
            41eb050145f20002c3e90001c4f200024ef2001301211161cef200034ff4
            8012c3f8802130bc7047f8b506f04bf84ef20012cef200024ff4801542f2
            0004c2f88050cef20404266b45f2000140f20003c4f20a230020c4f20001
            26f0400c40f210070126c4f830c0c2f200074865c3f88001c3f88801c3f8
            84010e61c2f880513c6844f6d350c1f26200a0fb04c080094860c3f88061
            c3f888611560f8bd00bf10b503f065ff002003460a2143f2082203f09cff
            40f695010020c0f2000104f0fbf80020bde8104004f012b940f20800c2f2
            00000278054b40f2000103eb0222c4f2050100203e2304f02ab82c310020
            2de9f84f40f23854c2f20004fff7d0fffff792ff01f0f6f804f11000fff7
            5afe4bf6ff7000f090f843f2244ac2f2000acaf80000fff7d2ff94f84000
            43f2241b02020832c2f2000b40f20001c4f205015a4400203e2303f085ff
            0026002741f288384ff000092546d4e90023921b63eb0703904579eb0301
            24d31648fff7f4fe617b94f840308b42eed02a7b002aebd1daf800000beb
            0121838a4ff48072002be2d04ff0010c85f80cc000f083f8fff70fffd4e9
            0023921b63eb0703904579eb0301dad216eb080647eb090700f038fcd3e7
            00bf480500202de9f00140f20801c2f2000191f800c045f256520cf10100
            c5f2555240f23853c2f2000382fb00579a6807eb4704160e46ea026802f4
            7f0593f8406048ea1527041b5d7b02f47f48e4b243f224103602013247ea
            0827c2f20000a54237509a6083f840c018bf0c70bde8f0014ae700bf38b5
            054602f05cf9044608b9204638bd47f2b0712a46c0f2000102f0c7f8c2b2
            12b10024204638bd40f64511c0f20001204602f041f9e9e7104601f0e5bd
            00bf70b510460d461c46bdf8106001f0dcfd236840f63d112846c0f20001
            0022ae826b60bde8704002f027b900bf2de9f041054616468846002091b2
            0322af8a01f039fe044688b132464146406806f024f82a1d21463b462846
            02f0daf9c5b2204601f0b2fd68b2bde8f081ff2568b2bde8f08100bf2de9
            f04f40f28054c2f20004a37b83b0d3f1010238bf00220546002a40f0f480
            6bb130b106686068864208bf934600f0e680012b00f0d681022b00f06b82
            00220a209046914683460190a67f40f28053c2f20003002e40f0548393f8
            2e6094464746ca4601237eb145b1d5f80080626a904508bf4ff0020b00f0
            c180012e00f0c281022e00f04e826246b846d14694f83e6040f28057d6f1
            010c38bf4ff0000c0a2b14bf4ff0000c0cf0010cc2f20007bcf1000f00f0
            de8097f84e6094464746ca4603237eb145b1d5f80080626c904508bf4ff0
            040b00f09280012e00f0b581022e00f033826646b846d14694f85e2040f2
            8057d2f1010c38bf4ff0000c0a2b14bf4ff0000c0cf0010cc2f20007bcf1
            000f00f0dd8097f86e20b4464746ca46052372b13db1d5f80080666eb045
            08bf4ff0060b63d0012a00f0a981022a00f01b826646b846d14694f87e20
            40f28057d2f1010c38bf4ff0000c0a2b14bf4ff0000c0cf0010cc2f20007
            bcf1000f00f0dd8097f88e20b4464746ca4607237ab145b1d5f80080d4f8
            8460b04508bf4ff0080b34d0012a00f0ab81022a00f0028262463e46d046
            94f89ec040f28057dcf1010a38bf4ff0000a0a2b14bf4ff0000a0af0010a
            c2f20007baf1000f00f0d580092311f0020f40f0ee800a2b1cbf5ffa83fb
            4fea4b0300f0f3811db1296804eb0b125160581c04ebc0040023e3714ffa
            8bf003b0bde8f08f00220a20a67f9046914613468346019076b13db1d5f8
            00c06769bc4508bf4ff0010be8d0012e00f0c580022e00f0808194464746
            ca4694f82e6040f28052d6f1010838bf4ff000080a2b14bf4ff0000808f0
            0108c2f20002b8f1000f3ff4ffae92f83e60b8466246d146022376b13db1
            d5f800c0676bbc4508bf4ff0030bbad0012e00f0cd80022e00f067819446
            4746ca4694f84e6040f28052d6f1010838bf4ff000080a2b14bf4ff00008
            08f00108c2f20002b8f1000f3ff400af92f85e206646b846d146042372b1
            3db1d5f800c0676dbc4508bf4ff0050b8cd0012a00f0c180022a00f04f81
            b4464746ca4694f86e2040f28056d2f1010838bf4ff000080a2b14bf4ff0
            000808f00108c2f20006b8f1000f3ff401af96f87e20b8466646d1460623
            7ab145b1d5f800c0676fbc4508bf4ff0070b3ff45eaf012a00f0b480022a
            00f03681b4464746ca4694f88e20d2f1010638bf00260a2b14bf002606f0
            0106002e3ff407af62463e46d046082315e7bcf1000f3ff428af4db1d7f8
            9470d5f800a0ba4508bf4ff0090b3ff433afbcf1010f00f09980bcf1020f
            7ff415af94f89fc0b44528bf4ff0090b0de74ff0ff0b20e7d4f810c040f2
            8057c2f20007bcf1000f00f0268197f81fc0944522bf4746ca463046bff4
            2eaf29e7226840f28053c2f20003002a00f0568100204ff00a0bda7b8046
            8146cdf804b021e6266a40f28052c2f20002002e00f0398192f82f209445
            3ff634aeb846d146022032e6276b40f28056c2f20006002f00f01e8196f8
            3fc062453ff629af4746ca46032027e7266c40f28052c2f20002002e00f0
            018192f84f60b4453ff641aeb846d14604203fe6276d40f28052c2f20002
            002f00f0da8092f85fc066453ff635af4746ca46052033e7266e40f28052
            c2f20002002e00f0d38092f86f60b4453ff64daeb846d14606204be6276f
            40f28052c2f20002002f00f0f78092f87fc066453ff642af4746ca460720
            40e7d4f8907040f28056c2f20006002f00f0fb8096f89fc0944528bf0920
            70e6d4f8806040f28052c2f20002002e00f0e08092f88f206245fff44aae
            3e46d046082048e600220a2094f80f8091469346019092e594f82f804745
            9ebf6246d146b3467ff6acada7e5e77f474522bf9446ca464ff0010bbff4
            7aae75e694f84f8047459ebf6646d1464ff0040b7ff6c6adc1e594f83f70
            474522bf9446ca464ff0030bbff492ae8de694f86f8047459ebf6646d146
            4ff0060b7ff6deadd9e594f85f70b8459ebfb446ca464ff0050b7ff6aaae
            a5e694f88f60b7429ebf6246d0464ff0080b7ff6f7adf2e594f87f70b845
            9ebfb446ca464ff0070b7ff6c3aebee611f0010f3ff4efae4ffa8bf30a2b
            18bf5ffa8bfb06d101994ab20a2a18bf5ffa81fb7dd04fea0b17385940f2
            8056c2f2000618b101f0a6fa0020b8514fea4b03581c04ebc00200219171
            e6e597f81fa0ca4522bf944647460196bff408ae03e692f85fa0d1453ff6
            5baeb44605264746019658e692f86f90ca453ff67aad66464ff0060cb846
            cdf804c075e592f84f90ca453ff640ad66464ff0040cb846cdf804c03be5
            96f83fa0d1453ff60bae944603224746019208e692f82f90ca453ff6fbac
            62464ff0020cb846cdf804c0f6e40a2093f80f90904683460192cde492f8
            7fa0d1453ff64bae0722b4464746019248e692f88f80c2453ff66aad4ff0
            080a62463e46cdf804a065e596f89f20ddf804c0424528bf4ff0090ccdf8
            04c070e54ffa80fbbbf10a0f3ff45dae5ffa80fb78e70a2388e500bf38b5
            0846022114461d46fff775fc40b2002802da4ff0ff3038bd40f28053c2f2
            000303eb0012083291790229f2d103eb00110b1d22602b6038bd00bf38b5
            40f28054c2f20004a37b93b1e07b421cd2b2ef2ae27340f20e81206840f2
            8055c2f2000518b101f0f2f9002129600023a373a27f40f28053c2f20003
            92b1d97f481cc1b2ef29d97740f21e81206940f28055c2f2000518b101f0
            d9f900232b610022a27794f82e2040f28053c2f20003aab193f82f10481c
            c1b2ef2983f82f1040f2fb80206a40f28055c2f2000518b101f0bdf90023
            2b62002284f82e2094f83e2040f28053c2f20003aab193f83f10481cc1b2
            ef2983f83f1040f2f380206b40f28055c2f2000518b101f0a0f900232b63
            002284f83e2094f84e2040f28053c2f20003aab193f84f10481cc1b2ef29
            83f84f1040f2cf80206c40f28055c2f2000518b101f083f900232b640022
            84f84e2094f85e2040f28053c2f20003aab193f85f10481cc1b2ef2983f8
            5f1040f29380206d40f28055c2f2000518b101f066f900232b65002284f8
            5e2094f86e2040f28053c2f20003a2b193f86f10481cc1b2ef2983f86f10
            71d9206e40f28055c2f2000518b101f04af900232b66002284f86e2094f8
            7e2040f28053c2f20003a2b193f87f10481cc1b2ef2983f87f1066d9206f
            40f28055c2f2000518b101f02ef900232b67002284f87e2094f88e2040f2
            8053c2f20003b2b193f88f10481cc1b2ef2983f88f1045d9d4f8800040f2
            8055c2f2000520b101f011f90023c5f88030002284f88e2094f89e2040f2
            8053c2f20003b2b193f89f10481cc1b2ef2983f89f1016d9d4f8900040f2
            8055c2f2000520b101f0f3f80022c5f89020002384f89e3038bd012b7ff4
            fbae012a3ff6ecaef6e6012af5d10129e4d8f2e7012a98d1012989d895e7
            012a7ff477af01293ff667af72e7012ac6d10129b5d8c3e7012aa3d10129
            94d8a0e7012a7ff40faf01293ff6ffae0ae7012a7ff4ebae01293ff6dcae
            e6e6012a7ff43baf01293ff62baf36e7012a7ff417af01293ff607af12e7
            2de9f0414c68062607460d46904619463246204605f00afb41463246a019
            05f005fb002108206173207329463846bb69984740b2bde8f0812de9f04f
            44688fb0237b627b054643ea0223082b0e4613d0b3f5c16f20d047f2c420
            c2f20000028dc38b0132591cc1830285284601f076f800200fb0bde8f08f
            91f8291011f0200ff3d06ff00d0100f091fe0028edd12846314602f0c9f9
            ebe791f829c01cf0200fe3d0b0f80ae0bef1290f1cd904f10e0894f80ec0
            98f801e04cea0e20b0f5807f03d198f80430062b1ad047f2c423c2f20003
            d88b1a8d411c01322846d9831a8501f03cf8c4e747f2c423c2f200035a8c
            d98b01320131d9835a8401f02ff8b7e798f80570042fe0d198f8020098f8
            032040ea02210829d8d147f2c42ac2f2000abaf81a1004f11c000df13409
            4b1c059001463a46484604f1260baaf81a30cdf81cb005f073fa3a460ca8
            079905f06efa736813b30c9f04f1160bbb4240f09e80012304931f460d98
            06f1230ccdf818c0002847d198f806c098f807204cea0223b3f5807f0ed0
            b3f5007f3ff46eafbaf82c30581caaf82c0067e7049304f1160b0227e0e7
            049b002b3ff45faf022000f00bfa010a88f8071088f80600059904220798
            05f033fa311d0422059805f02efa5946062208f1120005f028fa59460622
            204605f023fa06990622584605f01efa06990622a01d05f019fa3046b269
            2946904732e7314602f03ffa08900028b1d10d9800f0f00ebef1e00fabd0
            39464846fff7f2f947b2002fa4db780040f28059411cc2f2000909ebc103
            0df1280c4ff0020e0991604683f806e008f1080106220393cdf808c005f0
            e9f9ddf808c09ce803004fea071c5cf809700197099f49f83700039b089a
            9980da71019b002b3ff479af089f19463046069a5b464cf80970fff7b6fe
            019800f061ff6be700220492022760e72de9f84f002280468b4603202a21
            00f0c9ff8246002856d04468012000f082f904f10e060627c0f30f2508f1
            23094946f571b0713a4604f1160005f0a5f9002504f1200347f2807184f8
            2050c0f200015d715d709d70dd701d713a46204605f093f949463a464ff0
            0409e01905f08cf908eb09014a4604f11c0005f085f94a46594604f12600
            05f07ff908200121a5737170b07086f80590f570377120736773d8f81840
            51464046a04747f2c423c2f200031a8bc4b2511c5046198300f0fcfe60b2
            bde8f88f47f2c423c2f20003988cff24421c9a84f3e72de9f04782460f46
            086882b05146144602f07cf928b16ff00b08404602b0bde8f0873b6803f0
            f002e02af4d0002bf2d001213846fff72af9c6b24ffa86f8b8f1000f38db
            40f280554fea4809c2f2000509f1010c05ebcc039a79002a27d0012a14bf
            00210121d4f1010338bf0023194310d1ff20022a28d0012a08bf234602d0
            4ffa80f8c9e7002b53d0187b01282ad11b68f8e7394650460193fff745ff
            019ac0b2002aecd105ebc9039a7be2e7012211469a71d7e7002cafd047f2
            c423c2f20003998c481c9884a7e709f1010e504605ebce0321460af12302
            85f8a06002b0bde8f047cee519890320002200f0eefe0646a0b1214600f0
            21fe10f0ff0f0bd14fea081858f8050008b100f069fe48f805604ff00008
            80e7304600f061fe47f2c423c2f200039a8c4ff0ff38511c998473e72046
            00f0cafc002cf0d02646dfe770b50d46044682b00e212846164600f06ffc
            002858d13068214602f0d7f8034600282ed1326802f0f000e02835d06168
            a36882ea010c1cea030f05d01ffa82fe4ff6a96086455ad140f28052c2f2
            000292f8a01002eb0113083393f806c0bcf1020f05d102eb011250683168
            814234d0204631462a46fff723ffc0b240b202b070bd47f28073c0f20003
            2046294604f12302fff757fdc0b2f0e78df8013001205e238df802308df8
            000071786b4601f07f028df8032096f802e08df804e096f803c08df805c0
            e0e747f2c423c2f200035989fe204a1c5a81d0e747f2c426c2f20006b6f8
            2ec020460cf1010e294604f12302a6f82ee0fff725fdc0b2bee7e26804f1
            0c06002a9fd1fc20b7e7030a43ea002080b2704700bf030a43ea002080b2
            704700bf030643ea106100f47f4241ea022300f47f0043ea102070470306
            43ea106100f47f4241ea022300f47f0043ea1020704710b500f0b5ff00f0
            09f800f0c3f900f0b3fabde8104001f033b800bf30b4114c40f2246224f0
            03034ff47a504ff0000cc2f2000247f2c4241918a3f802c09360c2f20004
            83f804c065464ff0010c81f804c0188048801360a4f890005160088030bc
            70472b3400202de9f0050346002860d040f22462c2f200021168884250d3
            5568a8424dd208384ff0000c80f804c0976847f2c424c2f20004b84233f8
            08ccb4f892608fb2c7eb0008cceb060a1ffa88f801eb0c0638bf9060c244
            b042a4f892a014d0347994b9b54210d0956840f22464c2f20004ae4208bf
            a06031f80c4023f8084c31f80c400c19a4f80280b0f802c001eb0c04a042
            1cd02579d5b9956840f22462a84233f8080cc2f2000221f80c0008bf9460
            33f8082ce41b89184c8008e047f2c423c2f20003b3f89800421ca3f89820
            bde8f005704700bf4ff6fc730331c0f2000301ea03030b2b2de9f00716d8
            0c2340f22462c2f200021168884202d35468a04210d347f2c423c2f20003
            b3f898104a1ca3f89820bde8f0077047b3f57a5fe6d90020f7e7a0f10806
            30f8085c741aa4b2a5f1080cc4eb0c0c1ffa8cfc9c45efd36345e7d04f19
            97f80480b8f1000f28d104f1080a03eb0a08d2f8089031f805a01ffa88f8
            01eb0805b945a5f800a0a6f8008008bf95602a880026b2f57a5f2e716c80
            02d08a18a2f8028047f2c422c2f20002b2f89210cceb010c6344a2f89230
            b8e703f114056545b4d804f10807dd19adb2d2f808804f19474538bf9760
            32887c804a5335804a5b0024b2f57a5f3c71dbd08a185580d8e700bf2de9
            f00518b90020bde8f00570474ff6fc7cc31cc0f2000c03ea0c0cbcf10b0f
            9cbf43f674654ff00c0c04d9bcf57a5fe9d8ccf57a5540f22468c2f20008
            d8f80010d8f808701ffa81facaeb070083b29d4209dc0ee0ca5aa2f10806
            f61a664513d2aa4206da1346c8180479002cf2d0ca5af6e747f2c423c2f2
            0003b3f896200020511ca3f89610bee70cf11405b54238d80cf108069d19
            adb24a5305804e5b4a19147153800122b6f57a5f027101d08e19758047f2
            c423c2f20003b3f89220b3f894400832624492b29442a3f8922001d2a3f8
            9420874201d0083094e73b79002bfad0d8f80420974202d1f5e7ba421dd0
            3f88cf193b79002bf8d1c8f80870083081e7012447f2c4230471c2f20003
            b3f89240b3f894c012195244121a92b29445a3f89220d6d2a3f89420d3e7
            c8f80820083068e700bf38b500fb01f5a8b2fff75eff044618b12a460021
            04f00eff204638bd47f2c423c2f200032de9f00f4ff01005a3f8d6504ff0
            00054ff0000c4ff000044ff000004ff0040b4ff004014ff00502a3f8ba50
            a3f8bc50a3f8be503d4d002647f29079a3f89cc0a3f89ec0a3f8a0c0a3f8
            9ab04ff00f0c4ff0000ba3f8a640a3f8a840a3f8aa40a3f8a410a3f8b000
            4ff00001a3f8b200a3f8b400a3f8ae204ff003044ff000024ff01000dff8
            ac80a3f8b8c0a3f8c4b0a3f8c6b0a3f8c8b0c0f20009a3f8c240a3f8ce10
            a3f8d010a3f8d210a3f8cc00a3f8d820a3f8da20a3f8dc2025f00305b446
            b34639f8064048f80cb02cb3184f0121ba5b0023af1804f1ff3a8c422b60
            0aea010a28463b4610d9baf1000f05d00221bb188c423d60384607d99f18
            023118609b50bb188c423846f7d8611e02fb015002fb045548f80c000cf1
            040c0236bcf11c0fced1bde8f00f704733060020a07700005c3000200628
            10b423d842f62003c2f200034fea800c6344d3f83c28dab147f2c4210ceb
            0004c2f2000101eb4400b0f89c10b0f89ec0013189b214688c45c3f83c48
            a0f89c1038bfa0f89e10104610bc70470020fbe747f2c4236044c2f20003
            03eb4003b3f8a010481ca3f8a000ede70b46c1b14fea800c47f2c4216044
            c2f2000142f6200201eb4001c2f200026244b1f89cc0d2f83c080cf1ff3c
            1860a1f89cc0c2f83c387047704700bf70b5049e0446002543f27800c2f2
            000084f82950e6616560a560e56090f800c084f82cc00cf1010e80f800e0
            06982061084601b10868606002b11268a26003b11b68e3602046059b9847
            10f0ff0f08d147f2bc21c2f200010a68204622600c6070bd0024204670bd
            10b40c4601b10c68446002b11268826003b11b68c36010bc704700bf0346
            f8b190f8292047f2bc2112f0010f1cbf22f0010280f82920c2f200010a68
            824214d012b90de00a4661b111689942fad11968116047f2c022c2f20002
            1068984201d07047704700231360704700680860f0e7034600b9704747f2
            bc228178c2f200021068a1f1300c5ffa8cfc80b190f82c10614509d190f8
            2a201978914204d190f82b205978914202d000680028eed170470b4601b1
            0b684360704700bf0b4601b10b68c360704700bf0b4601b10b6883607047
            00bf47f2c023c2f200031860704790f8293013f0010f1cbf23f0010380f8
            2930704790f8293013f0100f1cbf23f0100380f82930704790f8293013f0
            100f09d143f0100313f0010f80f8293002d013f0200f00d17047011dfff7
            c1ba00bf90f8293013f0010f07d143f0010303f03002302a80f8293000d0
            7047011dfff7afba00bf30b4029cbdf80cc0032803d8dfe800f024211c05
            002030bc7047002528466d186545f7db00251d60ccb12018033020f00300
            586002201a734ff00102587359811981da811846e6e70e20c51c25f00305
            e5e714200e30f8e728200e30f5e75c60e8e700bfd0f1010338bf00230029
            08bf43f0010310b4e3b90029a8bf1ffa81fc20db037b4468d3f1010238bf
            0022032b08bf42f001027ab1631a00f1100c6345436017d34289038989b2
            cb18891803814181002010bc7047013b9ab2012a0cd90120f7e7c1f1000c
            42891ffa8cfc6245d7d2f5e744600120ece70029f0da42896245edd3641a
            4460dce700bf034630b100201b680130c0b2002bfad170477047034610b1
            c089421cda817047d0f1010338bf0023002908bf43f001037bb9036843b1
            0289b1f808c06244028118461b68002bf6d10a8903890160d11801817047
            d0f1010338bf0023002908bf43f001037bb9036843b10289b1f808c06244
            028118461b68002bf6d10a8903890160d318038111b1cb89581cc8817047
            034658b14289914203d209e05a898a4206d81b68891a89b2002bf7d10020
            70475b68585c704700bf2de9f001044658b14689b14203d20ce066898e42
            09d82468891b89b2002cf7d14ff6ff70bde8f0017047e3b10027b846b142
            1ed335468c46204602e04589ac4519d30068c5eb0c0c1ffa8cfc0028f5d1
            12f807c0844508d101371ffa87f80131434589b2e4d80020dce708f10100
            80b2d8e78c462046406810f80c00e8e700bf2de9f041078915469a189742
            0646884614db7f1bbfb29f4210d31c4602e09cb2a7420bd32b4621463046
            4246fff7a8ff23180028f3d12046bde8f0814ff6ff742046bde8f08100bf
            70b505460c4671b10b7863b102894ff6ff70824207d0084604f0a4fd4ff6
            fe718842024602d94ff6ff7070bd2846214692b20023bde87040bee700bf
            2de9f0410c46054600b119b9002040b2bde8f0810389934217d3002af6d0
            16464ff000086f896868be4238bf3746f61b04eb08013a46b844b6b204f0
            fffa1ffa88f82d68002eedd1e0e7f420dfe700bf2de9f8450d4614460646
            00282fd000292dd0002a2bd04ff0000ad0460ee077899f4210d8db1b9bb2
            3668321e18bf0122002c0cbf002202f00102d2b105eb0800002becd17789
            ff1a7168bfb2a74228bf274659183a46e41bba44b84404f0c6faa4b21ffa
            8afa1ffa88f80023dce74ff0000a5046bde8f8852de9f041d0f1010638bf
            0026002908bf46f0010605460c461eb1f42040b2bde8f08102890b899a42
            f7d337466989b4f80a80c81bc6eb0808404562686b68acbf1ffa88f81ffa
            80f8b118f818424604f091fa47446989bfb260894644b942b6b204bf2d68
            0027b0429cbf246800262cb1b4f80ac0b4f808e0f44508d01db168892b89
            984208d0002cd0d12046c6e72268002af3d0fa20c1e729680029f3d0fa20
            bce700bf38b5014600282bd00025cb895a1e90b2c88108b1284638bd4a7b
            0b7b12f0020f03f1ff3c08460c681ffa8cfc0dd1032b12d0bcf1010f0bd9
            fff770fa0135edb22146002ce1d1284638bd0b699847f5e70520fff7cffc
            f1e70620fff7cbfcede70546284638bd00bf10b5046864b1038941895a1a
            00232281036001812046fff7bfff002818bf0024204610bd38b503898b42
            29d9428991429cbf0c4605460fd9c3eb010c1ffa8cfc0c46054600e02b89
            63442b812d68a41a6a89a4b2a242f6d3287b48b9a24207d06b682846e218
            511b89b2fff78dfa054628682c816c8108b1fff78eff0020286038bd00bf
            2de9f0450c4683b0032803d8dfe800f0928f8d070026304603b0bde8f085
            0025032af7d8dfe802f05d4e4e020620fff735fc06460028eed0ea1c22f0
            030acaf51477a742a8bf27462918bbb213310027e51a21f003004ff0030a
            4ff00102bd42706086f80ca0376034817381f28155dd344640f24f2816e0
            424598bf8c46cceb0505076088bf6146206080f80ca04ff001040281002d
            00f11000dc815f73598158601c463add0620fff7f8fbaab2034611464ff4
            147c0028ded130461e46fff729ffa8e705200192fff7e8fb019a06460028
            a0d00021448101600273416004811ce005f1130ce01c20f003012cf00302
            4ff6fc765318c0f2000603ea0600fff783fa0646002886d02d1813350023
            25f003054560448103730481036000224ff0010e7273a6f80ee075e70e25
            78e714250e3575e728250e3572e700bf38b5036804466bb1084600222189
            fff759ff054630b12146fff78cfe2046fff7dbfe2c46204638bd2de9f047
            43f27c08c2f20008d8f8004043688246201e18bf01205e7a00282ed047f2
            b03936b2c2f20009002506e0e3682546181e18bf012008b31c46207cb042
            f5d1206847f2a833c2f200032146524618b1d9f80070b842e9d16769002f
            e6d0a069b8470028e2d05db1e2680120ea60d8f80010e160c8f80040bde8
            f087bde8f0870120bde8f0870b4601b10b680360002070470b4601b10b68
            43600020704782614161704700bf10b504460020fff743fb0346c8b10022
            014641f8042b081d5a6040f8042b40f8042b40f8042b40f8042b026043f2
            7c014ff0ff301c749872c2f200010a68da600b60184610bd00bf43f27c02
            c2f2000213680146834211d03bb1da682ab1914206d01346da68002af9d1
            0020fff746bbca68da60002af8d01346f3e7c3681360f3e700bf2de9f041
            0c46074684b0142120469046fff760fc00282bd0002101200a46fff7a7fe
            054600282dd02389002b2cd1404600f066fe064600282ad03946002f1fd0
            3868e8b1bb7a97f810c07f7a4246284602960097cdf804c000f07efea542
            c6b202d02846fff70efe70b204b0bde8f08120466ff01301fff72dfc18b9
            2546d6e7311ddfe7ff26efe72146fff791fccee7a54201d1fc26e7e72846
            fff7f3fdfc26e2e700bf021dabe7704700bf08b5fdf787fe43f28003c2f2
            0003186008bd00bf2de9f041fdf77cfe43f28005c2f200056b68074623b1
            2c68041b5a68944201d2bde8f081d3f800c0d3f80c809e6804201946c5f8
            04c0a41a2f60fff7bdfa404606b1b0476b68e8e743f28002c2f200025368
            30b4cbb1002503e01c681d46a4b123469c688442f8d1dc688c42f5d175b1
            1a682a60196819b148685a6882184a601946042030bcfff797ba30bc7047
            19685160f0e770b5044604200d461646fff755fa034600281fd043f28002
            00210160c2f2000250689d60de605c60002819d041688c4208d2091b1860
            4160536070bd51688c4209d310460268641a5c60002af6d11a60036070bd
            70bd091b1a605160036070bd536070bd42f6952108b5c0f200014ff47a70
            0022fff7c4ff42f67921c0f2000141f288300022fff7bbfffdf7effd43f2
            8003c2f20003186008bd00bf10b5fef73ffb42f67921c0f2000141f28830
            0022bde81040a4e700bf10b501f003fb42f69521c0f200014ff47a700022
            bde8104096e700bf47f2a433c2f20003f0b41c68002c42d02546002605e0
            b5f812c0944512d0ed682db1a842f7d1ed680126002df9d101b109680160
            a2b1428286b9c460186070b2f0bc70472f683fb131b1d1f800c0bcf1000f
            01d06745e2d1f326f0e70026eee721464ff4805247f6ff770d1e18bf0125
            ba420cbf002505f0010545b14d8a954218bfc968f1d1013292b22146ede7
            0029d1d0f326d3e72646c9e700bf438a70b504460d461646e3b105b12d68
            237c47f2a43243f004032374c2f2000211686560a68249b18c4218bf0b46
            02d112e09c4210d0db68002bfad10020e16040b2146070bd1a460146fff7
            8bffc0b20028dbd040b270bd002040b270bd00bf017c002321f004020274
            838243607047c2618161704700bf08b50120fff764f9034698b100201a46
            42f8040b111d586041f8040b41f8040b41f8040b41f8040b41f8040b4ff0
            ff3208609a72184608bd47f2a432c2f2000213680146834211d03bb1da68
            2ab1914206d01346da68002af9d10120fff76eb9ca68da60002af8d01346
            f3e7c3681360f3e700bf2de9f047448a84b005460f4692469846ddf83090
            34b922460146fff72dffc4b2002c45d138460821fff77cfa002864d13e46
            688a7468fef783fec0f30f2c207084f801c04046fef77bfe0021c0f30f22
            e270e171a070a1712b68a846002b2bd109f104083089fef76bfec0f30f21
            617120712b7c13f0010f26d06c7aab7a414600945246112430460194cdf8
            089000f08bfcbe42c4b202d03046fff71bfc47f2c423c2f20003b3f87810
            481ca3f8780060b204b0bde8f087d9f804008342d1d0be4215d1fa24f3e7
            b6f808e05246304641461123cdf800e000f0ecfb4ff6ff7c002808bf6046
            c0f30f22e271a071c4e73046fff7effbfa24dae7012008210022fff75efc
            064630b13b89002b91d03946fff776fa8de7ff24cae700bf2de9f0410746
            82b01046154688461e4600f010fc044658b1384641462a4633460094fff7
            5fffc0b240b202b0bde8f08147f2c423c2f20003b3f88610fc204a1ca3f8
            8620f0e700bf838a021dd8e700bf2de9f04f47f2c424c2f20004b4f87a60
            0546771c4668a4f87a70327870788bb042ea002005912f89fef7dafdc0f3
            03218b1cb7eb830f10db96f800c096f801a04cea0a20fef7ccfdc0f30321
            8b0059422846fff7b1f9824678b1b4f87e00b4f88210421c4b1c2846a4f8
            7e20a4f882300bb0bde8f04ffff777bb47f2b030c2f200000790079f0599
            3868d5f8048000f001fe98f8001098f801b0074641ea0b20fef79efd98f8
            022098f803c0834642ea0c20fef795fd47f2a433c2f200031a6801460893
            0992002a00f0df8047f2a833c2f200031868079bd646d3f8009013465246
            0690b2460394164604e0d8681a4600286bd003465c8a8c42f7d1002f4fd1
            186800284dd1002e59d09c8a5c45edd1586810b1069ca042e8d15646039c
            9a46002a00f0ac80db680999d360089acaf80c10c2f800a098f807c098f8
            06e05eea0c2211d0b5f808c047f2a83147f2b032c2f20001c2f200022846
            1123cdf800c000f0f2fa00287ad128466ff00701fff723f900283dd1baf1
            000f45d0daf81840002c30d047f2a833daf81c005146cdf800b02a46c2f2
            0003a0470bb0bde8f08f1868b7f1000c18bf4ff0010c814514bf60464cf0
            0100002898d0002ea5d193f810e01ef0040f08bf1e469ee7b446039c5646
            e246bcf1000fadd1059a079950680b689842a7d028460bb0bde8f04ffff7
            bbbab4f87e1028464b1ca4f87e300bb0bde8f04ffff7b0bacfb9079a1068
            00f0f00ebef1e00f12d096f801c096f800e04eea0c20fef7dcfcc0f30321
            8b1c99002846fff7c1f82846032100f07df8b4f87e00b4f88810421c4b1c
            2846a4f87e20a4f888300bb0bde8f04ffff785bab4f87e00b4f88020411c
            531c2846a4f87e10a4f880300bb0bde8f04ffff775bab4f88e20501ca4f8
            8e0055e7ddf824a0a4e72de9f047804684b08a469146012024210022fff7
            d7fa054600283dd046680024d8f8047086f800a086f8019034717471b471
            f47140681c22d8f80410083003f0b3fcb470f4706989304600f09bf947f2
            c423c0f30f22f270b070c2f20003b3f8600004aa411ca3f860103b7b7e7b
            b87bf97b43ea062c4cea004646ea016342f8043d21462846ff2301260196
            009400f05ffb2846fff720fa04b0bde8f08700bf0a460b21ace700bf0a46
            0321a8e700bf2de9f04f47f2c426c2f20006b6f86250d0f804906a1ca6f8
            6220044699f8003099f8010085b043ea00200d46fef738fcc0f3032a4fea
            8a0acaf1000720463946fff71af808bb218903291ed9606803785bb1082b
            24d0b6f87030b6f86610581c4a1ca6f86620a6f87000204605b0bde8f04f
            fff7d9b90bf0f00bbbf1e00f1bd0b4f808c0bcf1070f21d82046fff7ccf9
            b6f86a20501ca6f86a0005b0bde8f08f47f2b038c2f20008d8f800b02946
            584600f050fc0028ded0b6f874202046531ca6f8743005b0bde8f04ffff7
            adb9204600f006f9a8b920462221fef7cdffc8b10ffa8afa20465146fef7
            c6ff00287cd02046fff799f9b6f87430591ca6f87410cbe72046fff790f9
            b6f86800411ca6f86810c2e720466ff02101fef7adff0028e6d10ffa8afa
            98f80030626889f80c3098f801c047f2a83389f80dc098f802e0c2f20003
            89f80ee098f8030089f80f00197889f8101093f801c0002189f811c093f8
            02e089f812e0d8784ff6f67e89f81300937892f803c0117043ea0c237345
            52d9093398b2010ad170907000214ff0ff3e89f808e089f80b1089f80a10
            4846142100f097f8c0f30f2c89f80bc089f80a00b6f8603051465a1c2046
            a6f86020fef75aff844600287ff44faf47f2b03102460126c2f200012046
            ff2301960295cdf800c000f08af93fe7022021890022fff790f983460028
            3ff47aaf2146fff7c1f810f0ff0f7ff473af39465846dbf80470fef731ff
            00287ff46aaf2046b9465c46fff701f97ee708339bb2180ad0709370abe7
            f0b400f0010582b04ff000020029d4bf002305f00103adf8062023b110f8
            01cb01398df807c001290346d8bf4ff0000c1cdd8f1e7e08741c64000223
            a11ea342c1f34002b0f800c00dd022b141880423a3428c4407d09a1cc35a
            815a9c44931ca3428c44f7d1c318a7eb4601012904bf1b788df80630bdf8
            06300ceb03018ab202eb114c1ffa8cf000eb1c4025b1c0f3072c00064cea
            104080b202b0f0bc704708b5fff7adffc04380b208bd70b5044620b30026
            354660686189fff7a1ff6389401985b213f0010f05eb104507d0c6f10106
            c5f30722290642ea1145f6b22468002ce8d13eb1c5f3072c2a064cea1241
            c84380b270bdeb4398b270bd4ff6ff7070bd00bf2de9f04f83b0bdf83440
            071e18bf0127002c0cbf002707f00107019115469b46bdf83090002f33d0
            4ff0000a06465746b6f80a807068444538bfa0464146fff75dff7389c019
            c8eb040487b213f0010f07eb1047a4b208d0caf1010ac7f30722390642ea
            11475ffa8afa3668331e18bf0123002c0cbf002303f00103002bd7d1baf1
            000f04d0c7f3072c3f064cea1747019a13682a681ffa83fe0eeb134091b2
            431803eb12415846cf19fef757fa3f184846fef753fa3f181ffa87fc0ceb
            17418ab202eb1147f84380b203b0bde8f08f2de9f0470c4615469946bdf8
            20a00646002840d04ff00008474670687189fff705ff7389c01987b213f0
            010f07eb104708d0c8f10108c7f30722390642ea11475ffa88f83668002e
            e7d1b8f1000f04d0c7f3072c3f064cea174720682a681ffa80fe0eeb1043
            91b2581800eb12414846cf19fef70bfa3f185046fef707fa3f181ffa87fc
            0ceb174188b200eb1147fb4398b2bde8f0870746dfe700bf10b447f2bc23
            c2f200031b6873b193f8292012f0010ff8d05c6801689a6884ea01011142
            f1d1184610bc704747f2c023c2f200031b6823b193f8290010f0010ff1d1
            47f2c422c2f20002b2f856000023411ca2f85610e6e72de9f04f8bb00791
            06930446169d9df850809df854701646002a00f09f801421fef7acfd0146
            002840f0b080d4f804a0069a8af809708af8082048f48a40d6f8008043f2
            8809c8f3072c4fea184e4fea1863cdf804e08af811c08af813308af812e0
            8af810800591fef796f9c0f30f2b8af801b08af80000024620890492fef7
            8bf9c0f30f218af8031083460598c2f200098af807008af802b08af80600
            b9f80000fef779f9c0f30f2c8af805c08af80400b9f8003007995a1ca9f8
            0020049b002949d00968002946d04fea114c0a0ec1f307298af80f208af8
            0c108af80ec08af80d90ddf804e01ffa88f80eeb0802ddf818e04eea0727
            d219d3189b440beb00028bb2d11801eb0c0290b200eb124c0ceb1c436fea
            030e1ffa8ef0010a8af80b108af80a0047f2c421c2f20001b1f84830581c
            a1f848002b8c1bb1b4f808e09e451cd82846214632466b699847c0b240b2
            0bb0bde8f08f6968b6e743680aae93f811c01a7c987c93f813e042ea0c21
            41ea004c4cea0e6046f8040dd3e720462946324600f0f2fac0b2e1e747f2
            c423c2f20003b3f85c10fe204a1ca3f85c20d6e700bf2de9f047824684b0
            10461746894698469df830609df83450fff7f4fe044668b1504649463a46
            4346009601950294fff715ffc0b240b204b0bde8f08747f2c423c2f20003
            b3f85610fc204a1ca3f85620f0e700bf2de9f04f47f2c424c2f20004b4f8
            4a500646681c7568a4f84a002b786a7883b043ea02208846fef7c1f8c0f3
            0f30042810d03046fef77efeb4f85c30b4f84e00591c421ca4f84e20a4f8
            5c10002003b0bde8f08f2a7895f801e042ea0e20fef7a5f8ef78a978c0f3
            032a41ea0720fef79df8b6f80ac04fea8a0ad445074602d33089b8420dd2
            3046fef754feb4f85200b4f84e20431c511ca4f84e10a4f85230d4e75146
            2846fff79bfd002840f0bc8039463046fef784fe95f810a0697c95f812c0
            95f813904aea012b4bea0c4347f2b03b43ea0967c2f2000bcbf80070287b
            6a7ba97b95f80fc040ea022a4aea014947f2a837c2f2000749ea0c6347f2
            bc2901973b60c2f2000947464ff0010a97f829e01ef0010f0ad07b683946
            3bb1dbf80020934210460ed000f09af858b9baf1000f6ed0d9f800704745
            08bf3f684ff0000a002fe3d1019b47f2a83a18684146c2f2000a00f084f8
            00285cd1daf8001001f0f000e02856d0002f75d0aa79e9794ff63f7c42ea
            012ec0f2000c0eea0c0038b1304600f0bcfb064600283ff45eaf456847f2
            ac3a47f2b437c2f2000ac2f2000730464146caf800803d60fef7eafe30bb
            6b7a012b4ad0112b43d04146dbf8000047f2b038c2f2000800f049f850b9
            d8f8000000f0f003e02b04d0756030460221fff78ffb3046fef7a4fdb4f8
            5830b4f84e00591c421ca4f84e20a4f8581001990022cbf80020caf80020
            3a600a601ce73f6890e73046fef78cfdb4f84e305a1ca4f84e2011e73046
            fef783fdb4f85000b4f84e20431c511ca4f84e10a4f8503003e730464146
            fff7c0f9d8e730464146fff75bfbd3e73046fef76bfdf5e6431e13f1030f
            15d891f8292012f0020f0ed04b6883420bd08a6880ea0301114206d1d343
            1840984214bf00200120704700207047012070472de9f00f006882b002ac
            4ff0000c4cf6cd43904644f8080dccf6cc430a46664614f80c500020a3fb
            057a4feada0b0beb8b09a5eb49070df1080a30370aeb000907f0ff075ffa
            8bf500f1010a09f8047cbb4681465ffa8af0002de4d104f80c504d4688b3
            b0453edd0136c6eb080010f0010f1dd002f8017b35b3b04533dd013d02af
            edb27819013610f8047c10e0b04529dd1af8047c5ffa89f50df1080909eb
            050a02f8017b013670b11af8047c0136681ec0b20df1080b00f1ff390beb
            000a02f8017b002de2d1b0450cdd0cf1010c10464ff02e05bcf1040f00f8
            015b08d10023137000e00021084602b0bde8f00f70470136024693e743f2
            8c01c2f2000110227de72de9f041037886b0a3f130025ffa82fcbcf1090f
            71d80df10808302b08f10c07464637d00a25002406e005fb04344378303c
            0130a3f13002d2b2a3f1610c092a5ffa8cfcf1d9a3f14102102dd2b210d1
            bcf1050f0bd9052a0bd8bcf1190f06d941220a339b1a43ea04144378e1e7
            6122f7e72e2b20d1be423fd0346043780130a3f130025ffa82fcbcf1090f
            35d80436302bc7d110f8013f782b14bf00220122582b08bf42f00102002a
            2ad010f8013f1025a3f13002b6e7002b26d0b3f1200018bf01200c2b0cbf
            002000f00100e0b1b3f10a0218bf01220d2b0cbf002202f0010292b1b3f1
            090c18bf4ff0010c0b2b0cbf00230cf001033bb1002006b0bde8f0810825
            a3f130028de7c8eb06029010431c042b18d801a252f823f06f3c0000bd3c
            0000e93c0000cf3c0000a53c0000ff2ce2d80298039a030643ea0240049a
            40ea022c4cea040429b120460191fdf765fe019908600120d0e7b4f5803f
            ccd2029b039a180640ea024343ea04040029ebd1f0e7b4f1807f3cbf029b
            44ea0364bbd20029e1d1e6e700b583b001a9fff737ff10b1019803b000bd
            4ff0ff30fae708b5fdf73bfe00224ff0004305e05b08034206d05b08202a
            09d0013201320342f5d113b903e0034203d15b08fbd1012008bd002008bd
            00bf2de9f04f43688fb0079308919e790446d8790c9246ea00200e8cfdf7
            0dfe2289a6f10d01143ab6f1140348bf0b4692b2c3f3cf0303920b93002a
            00f0bb80c104c90cdb0043f6057a47f2c422133e049100f4005099b2c0f2
            000ac2f200020a96002509900d9106921426d14604980999c304da0c0a43
            05920a9b039a9a42a9bf0598934640f400500590a8bfddf834b002201421
            0022fef709fc8046002800f0848007991422406802f0f2fd61896268881b
            83b29619d8f804a063816660bbf1000f2dd05e461d4601e024686589ae42
            38bf3546adb2002df7d00320fef734f8294607460222034600285bd0d4f8
            04c00320cdf800c00195fef758f9014600284cd02046761b0291b6b2fef7
            cff9c7f810907c6102994046fef7cef9002ed4d10598fdf783fd0bf11401
            c0f30f238af807308af8060088b2fdf778fdc0f30f228af802004ff00000
            8af803208af80a008af80b0014215046fff788fac0f30f2c8af80bc08af8
            0a00089841460c9a43699847069a4046138e591c1186fef720fb0398cbeb
            000b1ffa8bf3039393b104980b99421896b204962e4667e739460320fef7
            08f84046fef70bfbff2040b20fb0bde8f08f0020f9e710b50446406908b1
            fef7fefa21460320bde81040fdf7f2bf2de9f0414468054660680e460379
            427953ea02222ed00027c4b16368204693f8018019789a7841ea082e93f8
            03c04eea024848ea0c68fef747f9c7192046bfb24446fef7d5fab8f1000f
            e6d143f29c04c2f20004236828689d420cbf2060306029460220fdf7beff
            a2883846d71ba780bde8f08103784278817843ea022e90f803c04eea0147
            47ea0c611422696005f1080102f015fd20460121fff78df82046fef712f9
            07462046fef7a2fa6c68b3e72de9f04743f29c0705468846c2f200070026
            3b68002b4ed095f80cc06c7ba97b4cea0420ea7b40ea014c4cea026c5a69
            00249445214620460dd0013440b393f81fa0c27f924523d91a682ab31946
            13465a699445f1d195f811902a7c95f812a042ea092295f8139042ea0a42
            d3f818a042ea09629245e0d12a7995f80590b3f80ca042ea09229245ded0
            01340028d6d11a681846002ad9d180b1fff759ff012cd4bf002401243618
            4645acbf002404f00104002cadd13046bde8f0874645acbf00230123012c
            d4bf002403f00104002c9fd1f0e738b543f29c03c2f200031b689bb1da7f
            0025511e42b11c68d9771d465cb12346da7f511e002af6d11c6818462946
            fff725ff002cf3d138bd2de9f04f47f2c42bc2f2000bbbf83210d0f80480
            4a1cabf8322098f8003098f8011083b0074643ea0120fdf73ffcc0f30320
            052840f0158298f806e098f8079043f29c064eea0920fdf730fc98f80230
            814698f80300c2f2000643ea0020fdf725fc019098f8001098f801a041ea
            0a20fdf71cfc00903846fef748f8b288824600eb020cbcf10a0f00f32682
            3468002c00f0508298f80ce098f80dc098f80e1098f80f504eea0c2343ea
            014040ea05624146002504e023682546002b38d01c4660699042f7d10b7c
            91f811c0887c43ea0c2891f813e048ea0043a06943ea0e684045e8d10879
            4b79b4f80ce040ea0328c645e0d1bbf846308846581cabf8460091f806c0
            91f807b04cea0b20fdf7cefbc104ca0c82bbe089fdf7c8fbc204d00c50b3
            04f108004146142202f0ebfb23e088460220fdf742fe0446002800f0de81
            0021234643f8041b1a1d616042f8041b42f8041b42f8041b42f8041b42f8
            041b03201160e077336804f10800236041461422346002f0c6fbb6f804b0
            0aeb0b0ea6f804e098f806a01af0200f15d1009801994feac94ac0f30323
            94f81ec04feada4201ebc200c3eb833100eb81084cf0010984f81e90a4f8
            1c80d7f8048098f803e098f802a04aea0e20fdf76ffb98f80090824698f8
            010049ea0020fdf766fb98f807c098f80610834641ea0c20fdf75dfbc204
            d30c4feac30ccbf303290ceb0a00c9eb893900eb890bd7f804a01ffa8bfb
            00234fea1b224fea1c218af803308af805108af807208af800308af80130
            8af802308af804c08af806b06268002a00f07a81536893f804e058794eea
            00218c45c0f0758100f0338193f806e0d9794eea0122944528bf4ff00108
            1fd227e1426892f804e092f805904eea09218c45c0f0028100f01c8192f8
            06e092f807904eea09208445c0f0138193f807909879134640ea09229142
            18bf4ff000081a7893f801e0997842ea0e20da7840ea014e5eea0260d4d1
            002b00f038813a0ec7f3072ec7f3074c83f802c0da7083f801e01f70d879
            9a799af804e09af8051042ea002c4eea01239c4518bf4ff00008a37f13f0
            010f00f01381b8f1000f00f00f8167687a685179107950ea012240f00781
            9af800009af801209af8021040ea02239af803e043ea014c5cea0e632ad0
            5b689af807209af8061093f804e0587941ea022a4eea002ce2450fd0e8e0
            526893f807c0997992f804e0507941ea0c2a4eea00239a4540f0db801346
            93f800c0597898784cea012e93f803a04eea004252ea0a62e3d1a18bd7f8
            04801431a18398f8013098f800c098f802004cea032e4eea004a04f10801
            1422404698f8037002f0a1faa08bfdf76cfa0021c0f30f2288f80b1088f8
            020088f8061088f8071088f80a1088f8032040461421fef779ffc0f30f23
            4aea076788f80b3088f80a00d4f804a0bfb1a0463c46676820466ff01301
            fdf738fe21465046fdf788fe3b787978ba7843ea012cf8784cea024454ea
            0064ead14446326843f29c01944208bf2268c2f2000116bf21680a602960
            21460220fdf7eafc5046b488fdf758fe201ab0800ee0bbf84430581cabf8
            4400bbf8361038464b1cabf836304ff0000afdf7daff504603b0bde8f08f
            010ec0f3074ec0f3072900918af801908af802e000998af800008af80310
            93f806e0d8794eea00218c4505d35079127942ea002ce3452bd93846b488
            fdf722fe241a3846b4804ff0000afdf7afffd3e740465146fff70afd30b1
            b2880aeb020cbcf10a0f7ff7ceadbbf83c104a1cabf83c20b7e740465146
            fff7f8fc8245f3dc0220fdf757fc044600287ff415aeebe73a0ec7f30721
            c7f3074eda70597083f802e01f70e7e64ff0000aa5e72546fce54ff00108
            6760dee6c2f30748130ec2f3072e8af802808af801e08af803308af80020
            4ff001086760cde600bf42f20001cef2040188694ef2001340f004028a61
            086bcef2000340f020024ff400700a63c3f880010a6b43f2a403c2f20003
            22f02000002208639a611a701a721a745a705a725a74da619a709a729a74
            1a62da70da72da745a621a711a731a759a625a715a735a75da629a719a73
            9a755a631a63da71da73da757047013044f2000cc4f2000c30b4440154f8
            0c500e2945f0200544f80c5054f80c5025f0200544f80c500bd047f2b875
            c0f2000555f8211054f80c5045ea010144f80c1044f2000cc4f2000c4001
            50f80c40224340f80c2050f80c2042ea833340f80c3030bc704700bf2de9
            f00144f2000c441c6501c4f2000c55f80c7005f1804647f0100745f80c70
            06f58046766816f0010f04bf43f2a406c2f200060ed055f80c7043f2a406
            47f08008c2f2000645f80c8087194ff0000c87f808c0670107f1804c0cf5
            80456d6844f2000c15f0020fc4f2000c08d057f80c80851948f4807847f8
            0c8000272f74650105f1804c0cf580477d6815f0040f1ad1450105f18047
            07f580454ff0010c871987f808c006f800c0a962ea622b6344f20003c4f2
            00036401e05820f01002e250bde8f0017047450105f1804707f580454ff0
            010c871987f810c04ff0000c06f800c06963aa63eb63e1e743f2a40cc2f2
            000cf0b41cf80040a4b900eb0c052c7a012c24d0460106f1804404f58044
            012500eb0c06a162e262236335720cf80050f0bc704700eb0c052c7c012c
            24d0450105f1804404f58044616300eb0c05a2630121e363002329740cf8
            0030e8e7470014fa07f744f20006c4f20006756844f200042f42c4f20004
            f8d0451c6d012e5946f080062e51c5e74600771c14fa07f744f20006c4f2
            0006756844f200042f42c4f20004f8d0451c6d012e5946f480762e51c4e7
            00bf44f220014201c4f200015318586800f003007047684620f007018d46
            79b544f20003c4f200035c6847f2b87643f2a405a4b2c0f20006c2f20005
            14f0030f18d0002305eb830006eb43031a8f836924ea020403b19847002c
            efd14ef20012cef200024ff40071c2f88011bde879408546704714f00c0f
            01d00123e2e714f0300f01d00223dde714f0c00f04d114f4407f03d00423
            d5e70323d3e714f4406f04d114f4405f03d00623cbe70523c9e714f44043
            01d00723c4e700bec2e730b444f20003441cc4f200036401e55843f2a40c
            c2f2000c4ef2001245f04005e5500ceb8000cef200024ff4007381611360
            30bc704700bf421c44f2000c5001c4f2000c50f80c304ef2001243f04001
            cef200024ff4007340f80c1013607047421c44f2000c5001c4f2000c50f8
            0c304ef2001243f0800140f80c1050f80c30cef2000243f480714ff40073
            40f80c10c2f88031704700bf42f20003cef20403186b47f6000c40f48042
            4ef20010f0b41a63c0f2000ccef20000002301249a1c3cf803103cf80230
            01f01f0703f01f0514fa07f714fa05f50eb21bb259097609931c60366031
            402b40f8267040f82150e5d142f20003cef204031a6b22f480401863f0bc
            704700bf1f2801d900be704747f60002c0f2000202eb8000036c19607047
            00bf1f2801d900be704740f20003c4f2262300f5886043f82010704700bf
            1f2810b402d900be10bc704701291dd018d2012303fa00fc43f20003c4f2
            010347f60002d3f88810c0f2000202eb8000026c21ea0c01c3f888101168
            41f004001060e1e7022917d000bedde7814043f20003c4f2010347f60002
            d3f88840c0f2000202eb8000026c2143c3f88810116841f004001060c7e7
            47f6000cc0f2000c0ceb80010b6c186820f004021a60bbe71f2810b402d9
            00be10bc704747f60003c0f2000333f810c001240cf01f02944003eb8001
            0a6c4ef2001310680ffa8cf140f008004909cef20003106043f82140e2e7
            00bf1f2801d900be704747f6000cc0f2000c0ceb80010b6c186820f00802
            1a6070471f2810b402d900be10bc704747f60003c0f2000333f810c00122
            0cf01f0412fa04f412fa00f00ffa8cf1490943f200024ef20013c4f20102
            cef200036031c2f8800043f82140dfe730b41346c2b30d7847f6c00480ea
            050202f0ff0cc0f2000454f82c505a1e85ea102002f001050122934225d9
            65b191f801c0022280ea0c0505f0ff0c54f82c50934285ea102017d911f8
            02c0013280ea0c0505f0ff0c54f82c5011f802c085ea102080ea0c0505f0
            ff0c54f82c500132934285ea1020e7d830bc704730b403460a4600293bd0
            007847f6c004c14301f0ff0cc0f2000454f82c50511e6ff07f4085ea0000
            01f0010501218a4225d965b193f801c0022180ea0c0505f0ff0c54f82c50
            8a4285ea102017d913f801c0013180ea0c0505f0ff0c54f82c5013f801c0
            85ea102080ea0c0505f0ff0c54f82c5001318a4285ea1020e7d830bc7047
            4ff0ff30fae743f2dc03c2f20003196847f2b83343f20002c2f20003c4f2
            0002994210b49069146a08d093f804c01cf0010f03d003f5115188426dd0
            00be40f20003c4f20623d3f87816d3f85826081e18bf01200ab140f00200
            40f20001c4f20621d1f854260ab140f0040043f20002c4f20002136bc3f3
            8133022b08bf40f0100008d0032b08bf40f0180003d0012b08bf40f00800
            40f20003c4f20623d3f8241609b140f0200040f20001c4f20621d1f81c26
            0ab140f0400040f20002c4f20622d2f818360bb140f0800040f20003c4f2
            0623d3f8101609b140f4807040f20001c4f20621d1f80c260ab140f40070
            40f20002c4f20622d2f808360bb140f4806040f20003c4f20623d3f80016
            09b140f4006010bc704703f544600c3084428cd18ce700bf43f2dc03c2f2
            0003196847f2b83343f20002c2f20003c4f20002994230b49469156a08d0
            93f804c01cf0010f03d003f511518c4212d000bed97a417193f80ac080f8
            04c05a7ac270197a817093f807c080f801c09b79037030bc704703f54462
            0c329542e7d1e7e7ec462cf007018d4643f2dc01c2f200012de978500868
            47f2b83343f20002c2f20003c4f2000298429469156a07d0187910f0010f
            03d003f5115294423ed000be43f20002c4f20002906a10f4803f02bf4cf6
            e753c0f2010393621ed010f0010204d0194c0122256bad18256310f0400f
            17d0154d43f200006e684cf6e754c4f200000136c0f201046e60846242f0
            0200db6e4a68934200d09847bde879408546704743f200004cf6e754c4f2
            0000c0f201048462002af0d00120e9e703f544600c308542bbd1bbe73898
            002043f2dc02c2f2000270b447f2b833146843f20001c2f20003c4f20001
            9c428d690e6a08d093f804c01cf0010f03d003f51154a54214d000be5468
            40f200020021c4f20622a042c2f80017d866c2f8181704d00123c2f80037
            c2f8183770bc704703f544610c318e42e5d1e5e743f2dc03c2f200031968
            47f2b83343f20002c2f20003c4f20002994210b49069146a08d093f804c0
            1cf0010f03d003f51151884211d000be59794a4250b20728d5bf094b47f6
            c04000eb8000c0f20000d8bf03ebc00010bc704703f544600c308442e8d1
            e8e700bfd07c000043f2dc03c2f20003196847f2b83343f20002c2f20003
            c4f20002994230b49469156a08d093f804c01cf0010f03d003f511518c42
            46d000be112841d8dfe800f03d3a3734312e2b2825221f1c191613100d09
            1f4a906c30bc70471d49486cfae71c4b1868f7e71a4ad06bf4e71849886b
            f1e7174b586beee7154a106bebe71449c86ae8e7124b986ae5e7114a506a
            e2e70f49086adfe70e4bd869dce70c4a9069d9e70b494869d6e7094b1869
            d3e7084ad068d0e706498868cde7054b5868cae70020c8e703f544620c32
            9542b3d1b3e7389800207898002047f2b832c2f20002d2f86c1c70b401f5
            11700301995802f5125311f0804f02d09d686c1c9c6011f4804f02d0d868
            461cde6011f4006f02d01d696c1c1c6111f4007f02d15869461c5e6111f4
            807f02d19d696c1c9c6111f0800f02d0d869461cde6111f0400f02d01d6a
            6c1c1c6211f0020f02d05e6a711c596243f20004c4f20004206cd2f86c6c
            9d6adc6a20f07f4c2cf47e01c0f34b404019091906f5117cd96298624fea
            0c1c4ff000434cf80230d2f86c0c40f20003411c01f00300c2f86c0cc4f2
            06230122c3f8042670bc704740f20003c4f2062370b5d3f80c4647f2b835
            d4f1010438bf0024c2f200050026d5f86c3c03f5117105eb011300e00024
            1a68002a0adb4cb1186800f40342b2f5407ff4d0fff774ff0136e9e73046
            70bd43f2dc00c2f20000026810b547f2b83443f20003c2f20004c4f20003
            a2429969186a08d094f804c01cf0010f03d004f5115e714514d000befff7
            baffd4f86c1c47f2b83301f5117212011059c2f20003002803dbd058c0f3
            0d4010bd002010bd04f544610c318842e5d1e5e743f20002c4f2000247f2
            b833916dc2f2000340f2000010b4c4f20620b3f8664089b24ff6ff72d0f8
            5806a14298bf0022c1eb040c624410b902eb820462009c6e47f2b830a242
            c2f2000010d2a21a8266986e4cf23f5200eb80004000c4f22532a2fb00c0
            a3f86610400910bc704700228266ede747f2b8334df6904070b5c2f20003
            c0f2010043f200069866c4f20006b26d40f20005a3f86620c4f206250024
            08e05cb9c5f80446fff7aaff002808bf6ff00504b16a11f4c02ff2d12046
            70bd47f2b8334df6904070b5c2f20003c0f2010043f200069866c4f20006
            b26d40f20005a3f86620c4f20625002408e05cb9c5f83446fff784ff0028
            08bf6ff00504b16a11f4e00ff2d1204670bd2de9f04f47f2b834c2f20004
            227940f2c003bbb0c0f600234ff0004112f002023691379340f09380379d
            06a945f480004027379003923891a5233992a420a125a0264ff09d080197
            4ff09c09e27a94f806b0059294f807a03aaa277a94f809e0551991449044
            961994f80ac009f8d0bc101808f8d0ac06f8d07c05f8d0ec059dd21800f8
            d0cc039847f2b83302f8d05c019a0918c2f20003002093f80c805f7b9e7b
            dd7b93f810e093f811c0063081f800804f700e714d7181f808e081f809c0
            06330c318242e8dcfff774ff00b100befff74aff00b100be43f2000640f2
            00024df69040c4f20006c4f20622c0f20100012736a93162c2f83476a066
            b36d0025a4f8663007e065b9b760fff7f3fe002808bf6ff00505b36ac3f3
            025cbcf1060ff1d1fff747ff10bb164843f2000240f20003c4f206230121
            c4f200021062c3f83416c3f8041628463bb0bde8f08f002606a90c275a22
            3891b146399609230820052504264ff00108039701926ee74ff0ff3e84f8
            05e0fff71dff0028d4d000bed2e700bf0480002043f2dc03c2f200031968
            47f2b83343f20002c2f20003c4f200029942f0b49469156a09d093f804c0
            1cf0010f04d003f511518c4200f0298100be90f800c01cf0010f00d000be
            42791979da7290f804c047f2b83283f80ac090f803c011f0020f83f809c0
            90f802c0c2f2000283f808c090f801c083f807c00078987100f0038192f8
            601011f0010f40f0fd8092f85a70d67a957a547a92f808c0d079917917f0
            010f82f8656082f8645082f8634082f862c082f8610082f8601040f0e480
            92f8547082f85f6017f0010f82f85e5082f85d4082f85cc082f85b0082f8
            5a1040f0d28092f84e7082f8596017f0010f82f8585082f8574082f856c0
            82f8550082f8541040f0c08092f8487082f8536017f0010f82f8525082f8
            514082f850c082f84f0082f84e1040f0ae8092f8427082f84d6017f0010f
            82f84c5082f84b4082f84ac082f8490082f8481040f09c8092f83c7082f8
            476017f0010f82f8465082f8454082f844c082f8430082f8421040f08a80
            92f8367082f8416017f0010f82f8405082f83f4082f83ec082f83d0082f8
            3c1078d192f8307082f83b6017f0010f82f83a5082f8394082f838c082f8
            370082f8361067d193f82a70dd7a9c7a93f809c0187ad9799e7947f2b832
            17f0010f83f8355083f8344083f833c083f8320083f8311083f83060c2f2
            00024bd192f8243082f82f5013f0010f82f82e4082f82dc082f82c0082f8
            2b1082f82a603ad1937f82f8295013f0010f82f8284082f827c082f82600
            82f8251082f824602ad1137e82f8235013f0010f82f8224082f821c082f8
            2000d17796771cd1937c557713f0010f147782f81bc090765176167611d1
            137bd57513f0010f947582f815c01075d174967406d116735574147482f8
            0fc090735173f0bcf6e503f544620c3295427ff4d1aed0e6f8b543f2dc04
            c2f20004226847f2b83443f20003c2f20004c4f20003a24205460e469969
            186a07d0277917f0010f03d004f5115c614556d000be06f17f424ff6fd7e
            501ecff6ff6e70453ad800befff7e3fc7a2707fb06fe4cf6cd4cccf6cc4c
            acfb0e1343f20000da08a266c4f20000816da4f866100020d4f86c7c07f5
            117104eb01110a6847f2b833002ac2f200030ada30bbb6f1ff3ff4d0fff7
            1bfdd0f1010038bf0020e7e7d8b9086803eb071c0cf51052c0f30d41936c
            081f2b6080b2f8bdfff7a9fcb6f1ff3fd4d0002ec0d143f20007a666c4f2
            0007bb6da4f86630c9e70020f8bd04f544610c318842a3d1a3e700bf2de9
            f84543f2dc03c2f2000347f2b8341f6843f20006c2f20004c4f20006a742
            054688469246b169306a07d0227912f0010f03d004f5115c614552d000be
            9b689d424cd00af17f464ff6fd7e701ecff6ff6e704531d800befff764fc
            7a2202fb0afe4cf6cd4cccf6cc4cacfb0e1343f20000de08a666c4f20000
            836da4f866300020d4f86c6c06f5117104eb01110a6847f2b833002ac2f2
            00030ada50b9baf1ff3ff4d0fff79cfcd0f1010038bf0020e7e7e0b10020
            bde8f885fff733fcbaf1ff3fddd0baf1000fc8d143f20001c4f868a0c4f2
            00018a6da4f86620d0e700beb0e704f544610c318842a7d1a7e70a68c2f3
            0d410c1fa4b2444526d803eb061303f51050836cdcb11b1913f801cd611e
            2d1905f801cd01f001000a4681b128b113f8011d013a05f8011d09d013f8
            010d023a05f8010d13f801ed05f801edf5d1fff788fb2046bde8f8850538
            bde8f8852de9f84543f2dc03c2f2000347f2b8341f6843f20005c2f20004
            c4f20005a742064688469246a969286a08d0227912f0010f04d004f5115c
            614500f0f58000be22799b689e4200f0ed80b8f10b0f00d800be12f0080f
            04d140f2ea50804500d900be0af17f414ff6fd7c4a1ecff6ff6c624532d8
            00be7a2000fb0af24cf6cd4cccf6cc4cacfb021343f20007d908a166c4f2
            0007bd6da4f8665043f20005c4f2000500210127226f1001031903f54462
            0c321368002b0cda61b9baf1ff3faf60f7d0fff7e5fb002814bf00216ff0
            0501e9e769b10020bde8f885baf1000f40f0aa80206f00010219d2f84c3c
            002bf1db05190021c5f8501c227947f2b83312f0040fc2f200031fbf1a6f
            03eb0213d3f8502c42f0806218bfc3f8502c206f04eb0015d5f8501c40f2
            ec5041f0c042c5f8502c236f804538bf404604eb0315d5f8501c48ea0102
            c5f8502cd4f8603c226f43f0007102f1c50cc4f8601c04eb0c156b68e0b1
            361816f801cd411e1b1803f801cd01f001050a4681b12db116f801cd4a1e
            03f801cd09d016f8011d023a03f8011d16f8015d03f8015df5d1226f04eb
            0212d2f84c3c264a13f4006f02d0516b4d1c556313f4806f02d0916b4d1c
            956313f4007f02d0d16b4d1cd56313f4807f03d01c490d6801350d6013f0
            020f02d0956c691c9164556c216fc3f3c3035b19536404eb01154ff00043
            c5f84c3c216f40f200024d1c43f20003012105f00105c4f20622c4f20003
            2567c2f834169960bde8f88500be10e704f544610c3188427ff405af05e7
            baf1ff3f3ff42eaf1ae7389800207898002043f2dc02c2f200022de9f047
            47f2b834176843f20003c2f20004c4f20003a7420d46064699691b6a08d0
            207910f0010f04d004f5115c614500f0fe8000be2079002e00f09e809368
            9d4200f0f38026b306eb460195f800c049008a1f1cf0010fc2f3400200d1
            00be06238b4215d02ab115f803c01cf0010f0cd10ae015f803c01cf0010f
            00d100be0633ea5c12f0010f00d100be06338b42f0d10f2e40f2d38047f2
            b83320f00201c2f200032171a3f1400000215a1e83f84b10531e834282f8
            4b10f7d1002e58d006212846fef7b0ff4ff0010a00f007080afa08f1c0f3
            c502131993f80cc006f1ff3941ea0c071f73af1db24509f00109d0463eda
            b9f1000f15d006213846fef793ff00f007080afa08f1c0f3c502131993f8
            0cc04ff0020841ea0c07b0451f7305f10c0725da06213846fef77dff00f0
            07030afa03f1c0f3c502131993f80cc0b81d41ea0c021a730621fef76dff
            00f0070c0afa0cf1c0f3c5031b191a7b08f1010c0cf1010841ea02000c37
            b0451873d9dbbde8f047fff7e9ba40f00205257137463f4b94f80bc0da19
            82f805c0a17a06eb46061171657a701cd57094f808c004eb400080f80cc0
            e17903f15a0c5170a5791346c2eb0c01063903f8065bc1f34005811d6345
            d4d08db1e57a5d71a57a1d71657add70257a0d73e57900f10c015d70a079
            187002f10c036345c1d0e07a1a465871a07a1871607ad870207a0873e079
            5870a07902f8060be07a5071a07a1071607ad070207a8874e0790c315070
            a2799a710c336345e1d1a2e700be0ae704f544610c318b427ff4fcaefce6
            062707fb06f740f002002071afb1ed19791e0b4a15f801cd0b4601f802c0
            01f0010153b119b915f8010d013b985415f8011d013b9954002bf5d10e2e
            82dd79e700bfc473002043f2dc03c2f20003196847f2b83343f20002c2f2
            0003c4f20002994210b59069146a08d093f804c01cf0010f03d003f5115e
            70450ad000be00f0a4fb012800d010bd00f0a7fb40f0010010bd03f54460
            0c308442efd1efe743f2dc00c2f2000038b5026847f2b83443f20003c2f2
            0004c4f20003a2429969186a07d0257915f0010f03d004f5115c614525d0
            00be00f05dfbfff7b5ff10f0010f054601d1284638bdfff7ebf908b16071
            00befff7c0f908b1607100be40f20003c4f206230122c5f34000c3f85806
            c3f80426c3f82426c3f83426284638bd04f544610c318842d4d1d4e743f2
            dc03c2f20003196847f2b83343f20002c2f20003c4f20002994270b50446
            9069156a08d093f804c01cf0010f03d003f5115e704574d000befff7adf9
            00b100befff783f900b100be40f20003c4f2062304f00100c4f34001c4f3
            800504f01802c3f85456c3f87806c3f85816182a16d8dfe802f04d151515
            15151515421515151515151537151515151515150d0043f20001c4f20001
            0a6b42f440450d6340f20005c4f20625c4f3401304f0020cc4f38011c4f3
            c010c4f34024c5f81806c5f824364cea8300c5f81c16c5f80c4600f0fefa
            0123c5f80436c5f83436bde8704047e743f20003c4f20003186b20f4404e
            4ef400411963d2e743f20005c4f200052a6b22f4404c4cf480402863c7e7
            43f20001c4f200010b6b23f440420a63bee703f544600c30854285d185e7
            00bf2de9f04fa74c83b040f20002c4f20622844694e80300adf804100121
            00901346116018680128fcd043f20005c4f200052b68b3f17e4f00d000be
            43f20007c4f20007be6ab6f1704f00d000be43f20002c4f20002116b40f2
            4008c3f20028414500d000be43f2dc05c2f2000547f2b8346868c2f20004
            4ff0000ee06684f804e084f805e0a4f866e084f80be084f80ae084f809e0
            84f808e084f807e084f806e0a4f15a0123465e1e83f865e0731e00208b42
            86f86500f6d17b4f7c4ea7f1400e3146f04681f8f30581f8f20540f2f253
            5a1e531e8854c854002bf9d101f5be6104314145eed17248dff8d4a1dff8
            d481c4f86c3c3b6299468364c3467b625146c364fb60cef80030bb62c0f8
            c0304364bb608365fb61c3657b600365fb6243657b618366bb61c3663b61
            03667b64436683673b63c367fb6303677b634367bb63bb64a36681f8eb95
            81f8ea9540f2ea535a1e531e01f8029001f80390002bf7d101f5bc610c31
            5945ecd143f20002c4f200024ff000494ff4be61c4f8543c2367c4f8583c
            2260c4f84c3cc4f8503cc4f8643cc4f8683cc4f85c3cc4f8603ccef80090
            41648664434ec0f8509041658665414ec0f8609041668666404ec0f87090
            41678667416f384e41f00079a6f5f151c0f8749087f800c0c4f854acc4f8
            641cd4f8607c40f20001c4f2062147f00070c4f8600c0b651768012027f4
            7c571760cb614b601768bcf11f0f27f460271760176827f07c071760c1f8
            400b976d6fea17476fea07479765c1f81836c1f85406c2f818e0c2f82080
            c1f8400729d800f06ff903202071fff7fdfd9df802209df801309df80560
            9df804e09df803c09df800702272e371a9680020a771e67284f80ae084f8
            09c0fff773fc40f20003c4f206230122c3f83426c3f8042603b0bde8f08f
            00f01ff996f800c0bcf11f0fced900becce7107e00003898002028800020
            b89700201c860020108c0020049200202c74002004800020f0b440f20002
            c4f206224ff0010c002382b0c2f848c9c2f844c9154666461c46c5f84049
            0194019f132f05d8019a571c0197019a132af9d9c5f840690194019f132f
            05d8019a571c0197019a132af9d90133202be4d1274a8700167807f07c04
            f50105f4786045f2020644ea0003002908bf4ff4c04640f2000000271e43
            c4f206204ff0100c4ff400423c460125c0f840490194019b132b05d8019b
            01330193019b132bf9d932420cbf00230123c0f84439c0f840590194019b
            132b05d8019b01330193019b132bf9d95208bcf1010c0dd0d1f1010338bf
            0023022a14bf002303f00103002bd2d0c0f84879cfe702b0f0bc70473898
            002030b5002183b0fff77fff002240f20001c4f2062110464ff4004c1446
            0125c1f840490194019b132b05d8019b01330193019b132bf9d9d1f84c39
            0bb140ea0c00c1f840590194019b132b05d8019b01330193019b132bf9d9
            0132102a4fea5c0cddd140f200030022c4f20623c3f84029019201991329
            05d8019b5a1c019201991329f9d903b030bd30b50c4683b00121fff73aff
            002140f20002c4f206224ff4004c08460125c2f840090190019b132b05d8
            019b01330193019b132bf9d91cea040f0cbf00230123c2f84439c2f84059
            0190019b132b05d8019b01330193019b132bf9d9013110294fea5c0cdbd1
            40f200010022c4f20621c1f8402901920198132805d8019a501c0190019b
            132bf9d903b030bdf8b5114f00244ff6fd7602203c70fff76dff411e8bb2
            01340220b342e4b20a4d10d93c70fff762ff421e90b2b04209d9631cdcb2
            202ce8d14ff0ff3c85f800c0ff20f8bd2878f8bd38980020002010b54ff4
            0041fff78eff00204ff49451bde8104087e738b50020fff740ff40f49051
            89b20020fff77eff002440f2e7350120fff734ff013480f02000ac42ccbf
            0023012313ea5013f2d138bd00bf08b50120fff724ffc0f3800008bd00bf
            08b51220fff71cff034610f4006018bf042013f4806f1cbf40f00200c0b2
            08bd10b504460420fff70bff14f0020f40f4f07189b203d121f4c0721004
            010c14f0040f03d121f4a0710b04190c0420bde8104039e710b504460020
            fff7f1fe012c0cbf40f4804180f4804189b20020fff72bff0020bde81040
            e2e600bfeff309800046704780f30988704700bfeff308800046704780f3
            0888704700bfeff31280704700bf80f31188704700bfeff31080704700bf
            80f31088704700bfeff31380704700bf80f31388704700bfeff314807047
            00bf80f31488704700bf00ba704740ba7047c0ba704790faa0f0704700bf
            d0e84f0fc0b27047d0e85f0f80b2704750e8000f704700bfc1e8400f7047
            00bfc1e8500f704700bf41e80000704700bf704700bf30b447f6186c84b0
            c0f2000c6d469ce80f0085e80f0042f20003cef20403986c996c9a6cdd6c
            0df1100c00f00c04db6cc1f30110c2f381110ceb8102c5f30421013113f4
            005f40f61c0364440ceb8000c6f2080354f8105c50f8104c52f8100c1a68
            44f24133c4f6544318bf49009a4219d000be47f64002c0f27d1240f20c03
            c2f20003b2fbf5f5b2fbf4f4b2fbf0f0b2fbf1f15a615d609c60d8601961
            1a6004b030bc704740f64003c6f208031a6840f2003322f07f42c0f20103
            9a42d8d9b2f5003f07d241f22c63c6f208031a68002ad3d1cde7b2f5403f
            cad241f6ac63c6f208031a68002ac8d1c2e74ff0ff30704700bf49f68403
            c2f200030c221a604ff0ff30704700bffee700bf49f68403c2f200030b22
            1a604ff0ff30704700bf4ff400534b600020704700bf0120704701207047
            49f68403c2f2000316221a604ff0ff30704700bf49f68403c2f200031f22
            1a604ff0ff30704700bf002070474ff0ff30704700bf002070474ff40053
            4b600020704700bf4ff0ff30704700bf49f68403c2f2000302221a604ff0
            ff30704700bf49f68403c2f200030a221a604ff0ff30704700bf00207047
            08b543f2e803c2f200031a683ab1eff308811018814208d31860104608bd
            49f68802c2f200021a60f1e747f62861c0f200011922012000f0d9fa00f0
            01f800bf08b5062000f010fa0120fff787ff00bf70b547f6646647f66465
            c0f20006c0f20005761bb61006d0002455f8243001349847a642f9d847f6
            646547f66866c0f20005c0f20006761b01f042fab61006d0002455f82430
            01349847a642f9d870bd032a2de9f0070bd83ab1002311f803c000f803c0
            01339342f8d1bde8f007704782180c46034603e014f8011c03f8011c03f0
            03061946a44601330134002ef3d11cf00304634608bfc1eb020c68d06542
            c4f1040a0ceb050733464feaca0a5cf805604feac408551a08e057f8044f
            264604fa0af449ea0404cc5004335c18032d26fa08f9a5f104050ceb0306
            eddc002302e0f15ce154013319199142f9d3bce753f8404c41f8404c53f8
            3c4c41f83c4c53f8384c41f8384c53f8344c41f8344c53f8304c41f8304c
            53f82c4c41f82c4c53f8284c41f8284c53f8244c41f8244c53f8204c41f8
            204c53f81c4c41f81c4c53f8184c41f8184c53f8144c41f8144c53f8104c
            41f8104c53f80c4c41f80c4c53f8084c41f8084c53f8044c41f8044c1c46
            0d4640334031bcf13f0facf1400cb6dc21462b46541b0fe051f8105c43f8
            105c51f80c5c43f80c5c51f8085c43f8085c51f8045c43f8045c0f2c0d46
            9c4601f1100103f11003a4f11004e5dccceb0201002303e0ec584cf80340
            04335e19032903eb0c04a1f10401f4dc7fe700bf032ac9b230b407d822b1
            0023c15401339342fbd130bc704700eb020c034601e003f8011c03f00304
            1a460133002cf7d14ff00133c2eb0c0403fb01f31fe042f8403c42f83c3c
            42f8383c42f8343c42f8303c42f82c3c42f8283c42f8243c42f8203c42f8
            1c3c42f8183c42f8143c42f8103c42f80c3c42f8083c42f8043c15464032
            3f2ca4f14004d9dc2a46c5eb0c0407e042f8103c42f80c3c42f8083c42f8
            043c154610320f2ca4f11004f1dc2a46c5eb0c0501e042f8043c14460432
            032da5f10405f7dc01e004f8011b6445fbd3a0e700bf70b5044688b104f1
            480253685d1e07d4023302eb830656f8043d9847013dfad5a36a0bb12046
            984770bd40f22803c2f200031c68e7e700bf70b50c460968054609b1fff7
            f9ff28462146bde8704000f0adb900bf40f22803c2f2000370b51b680546
            984246d0436a1946bbb1da68aab10026915941b10c68284600f097f92146
            002cf8d16b6ada6804363c2e01d0da68efe71146284600f089f9696a0968
            11b1284600f083f9696911b1284600f07ef9696a11b1284600f079f9a96b
            11b1284600f074f9e96b11b1284600f06ff9296c11b1284600f06af9ab6c
            d3f8881011b1284600f063f9696b11b1284600f05ef9ab6903b970bdab6a
            28469847d5f8d8100029f7d02846bde8704095e71f2970b50c46054620d8
            426ca2b152f821308bb1012b0dd0b3f1ff3f06d00846002542f821509847
            284670bd16230360012070bd002070bd284600f087f8224601462846bde8
            704000f082b8162303604ff0ff3070bd00bf40f228030146c2f200031868
            cce700bf38b5456c04460db1002038bd802100f0f3f9606428b12b464351
            0435802dfbd1f2e7013838bd00bf40f22803c2f200031868e5e71f2910b5
            044682b012d8426ccab152f8213002eb810283b1b3f1ff3f0fd0012b09d0
            0846002414609847204602b010bd4ff0ff30fae70320f8e70120f6e70220
            f4e70191fff7c2ff01990028f0d1626cdde700bf40f228030146c2f20003
            1868cee700bf1f2910b5044682b007d8436c53b153f8210043f8212002b0
            10bd162303604ff0ff30f8e701910092fff79eff0199009a08b9636cebe7
            4ff0ff30ece740f228030a46c2f2000301461868d9e7fff710bd38b549f6
            8404c2f2000405460846114600232360fff708fdb0f1ff3f00d038bd2368
            002bfbd02b6038bd00bf20f0030110f00300c0f1000051f8043b00f1040c
            4feacc0c6ff000021cbf22fa0cf213434ff0010c4cea0c2c4cea0c4ca3eb
            0c0222ea030212eacc1204bf51f8043b0430f4d013f0ff0f1fbf013013f4
            7f4f013013f47f0f18bf0130704700bf10b440f22804c2f200048c461346
            01466246206810bcfff7fbbc00bff8b540f21c14c2f200040f46054600f0
            fdfba3685e6826f0030606f57e630f33df1b3f0b013f3f03b7f5805f07db
            0021284600f0effba368f318834204d0284600f0e6fb0020f8bd79422846
            00f0e2fbb0f1ff3f10d0a26843f2f403c2f20003f61b46f0010628465660
            1a68d71b1f6000f0cefb0120f8bd0021284600f0cafba368c21a0f2adadd
            40f2245443f2f401c2f20004c2f2000142f001022468001b08605a60cbe7
            00bf2de9f04105460c46002900f0888000f0a9fba4f1080240f21c105668
            c2f2000026f00103d0f808c0d1188c454f6827f0030700f0958016f00106
            4f605fd00026cc19646814f0010f06d1db19002e7ad08c68c9688c60e160
            43f00101d3505160002e47d1b3f5007f5bd3590a04299ebf4fea931c0cf1
            380c4feacc0428d914299cbf01f15b0c4feacc0421d954299ebf4fea133c
            0cf16e0c4feacc0418d9b1f5aa7f9ebf4fead33c0cf1770c4feacc040ed9
            40f2545c614595bf4fea934c4ff47c740cf17c0c4ff07e0c98bf4feacc04
            0419a168a14203d164e089688c4204d0486820f003008342f7d3cb68d360
            9160ca609a602846bde8f04100f035bb54f8084c00f1080c121b1b199468
            644547d0d2f80cc0ccf80840c4f80cc090e7bde8f081db084ff0010c4668
            00ebc3019b100cfa03f3d1608c6846ea030343609460e2608a60d6e78c68
            1c4fbc4281d1d35043f00103e260a26053609460d460c9e7fb1816f0010f
            07d154f8081c521a5b18d4689168a160cc6040f228518260c2f2000143f0
            010050600a689342b2d343f2f0032846c2f200031968fff7ddfea9e70126
            4de7012644684feaac0c0b4606fa0cfc44ea0c04446098e700bf24010020
            2de9f04f01f10b04162c83b006462fd8002310248c422cbf194643f00101
            002930d1304600f0befab4f5fc7f2ed24fead40e40f21c15c2f2000505eb
            ce02d368934200f006825a6803f10805d968304622f0030c9a6863445c68
            8a6044f00104d1605c6000f0a0fa284603b0bde8f08f24f00704e30f8c42
            2cbf194643f001010029ced00c2300253360ede75fea542e04bf4fead40e
            4feace0040f0908040f21c15c2f200052818c368984206d10de0002a80f2
            6f81db68984207d0596821f003010a1b0f2af3dd0ef1ff3e0ef1010e40f2
            1c17c2f2000707f108018b68994208bf7a6826d05a6822f0030cc4eb0c02
            0f2a00f39481002ac960896080f29980bcf5007f80f065814feadc0c4ff0
            010a7a6807ebcc004feaac0c0afa0cfcd860d0f808804cea02027a60c3f8
            0880c8f80c3083604ff0010c4feaae030cfa03fc944500f2828012ea0c0f
            08d12ef0030e4fea4c0c0ef1040e12ea0c0ff8d007ebce09f246c846d8f8
            0c30984507d168e1002a80f27881db68984500f06281586820f00300021b
            0f2af2dd1d461f19d3f80cc044f0010e55f8084f3046ba5042f00102c3f8
            04e0ccf80840c4f80cc08f60cf607a60b960f96000f0f6f954e7bef1040f
            9ebf4fea941e0ef1380e4feace007ff665afbef1140f9cbf0ef15b0e4fea
            ce007ff65cafbef1540f9ebf4fea143e0ef16e0e4feace007ff651afbef5
            aa7f9ebf4fead43e0ef1770e4feace007ff646af40f254539e4595bf4fea
            944e4ff47c700ef17c0e4ff07e0e98bf4feace0035e703eb0c0203f10805
            3046536843f00103536000f0b0f90ee7d7f80880d8f8043023f00309c4eb
            09024c4594bf002301230f2ad8bf43f00103002b00f0a18043f2f00bd5f8
            0824c2f2000bdbf8003010331b19b2f1ff3f06d003f57e631f3323f47e63
            23f01f0319463046019300f085f9019bb0f1ff3f824600f0f48008eb0901
            814200f2ec80dbf804209a185145cbf8042000f04581d5f8085440f21c10
            c2f20000b5f1ff3f08bfc0f808a403d05244511acbf804101af007053046
            17bfc5f108054ff48055aa4405f5805553441b051b0ded1a294600f050f9
            b0f1ff3f00f02c81caeb0001491941f00101dbf8042043f2f003c7f808a0
            c2f20003aa18b845cbf80420caf8041017d0b9f10f0f40f2df80a9f10c01
            052521f0070108eb01000f2985604560d8f8040000f0010041ea0000c8f8
            040000f2ac80d04643f2f003dbf82c10c2f200038a42dbf8301088bfda62
            43f2f003c2f200038a4288bf1a6382e05c189a68d9683046666803f10805
            8a6046f00103d160636000f0fcf85ae608eb040342f0010244f001043046
            c8f8044008f108055a60bb6000f0ecf84ae64fea5c22042a54d9142a00f2
            89805b324feac208a84440f21c17c2f20007d8f80800404503d16fe08068
            804504d0426822f003029445f7d3d0f80cc0c3f80cc098607a68c360ccf8
            08308ae61f19304644f00104cf605c6003f10805ba5042f001028f607a60
            b960f96000f0b4f812e60af1010a1af0030f5fd003f1080889e603f10802
            d3689a4208bf0ef1020e3ff436aeefe51d461918da68304655f8083f4c68
            936044f00104da604c6000f093f8f1e54fea9c1238324feac208aae7b845
            3ff411afd7f80880d8f8042022f00302944294bf00230123121b0f2ad8bf
            43f00103002b3ff47caf3046002500f073f8d1e508f1080130460193fff7
            b8fc019bd7f808805a6849e74ff0010ad7f80480921084460afa02f248ea
            02027a608de7542a24d84fea1c326e324feac20871e70123d046caf80430
            c6e74a461ef0030f13460ef1ff3e33d053f808299a42f5d07b684fea4c0c
            9c453ff68eaebcf1000f3ff48aae1cea030f27d0d6460ee6b2f5aa7f15d8
            4feadc3277324feac20849e70805000d00287ff4b6aed7f808804b4443f0
            0103c8f8043000e701210025d5e640f2545082420dd94ff47c787e2231e7
            7b6823ea0c037b60cbe74fea4c0c0af1040acfe74fea9c427c324feac208
            21e700bf704700bf704700bf38b549f68404c2f200040546084600232360
            fff7e7f8b0f1ff3f00d038bd2368002bfbd02b6038bdffffffffffff0000
            00000000000000000400040005000f0003001000100000001c0020002000
            1800100010006002000000000000ffffffff010000000300800001000001
            030080010100000203008002010000030300800301000004030000040100
            800403008004030000050100800503000c003000c0000003000c003000c0
            20002100220023002400250026002700280029002a002b002c002d002e00
            2f0030003100320033003400350036003700380039003a003b003c003d00
            3e003f000030014004300140083001400c30014010300140143001401830
            01401c3001402030014024300140283001402c3001403030014034300140
            383001403c3001404030014044300140483001404c300140503001405430
            0140583001405c3001406030014064300140683001406c30014070300140
            74300140783001407c30014000000000963007772c610eeeba51099919c4
            6d078ff46a7035a563e9a395649e3288db0ea4b8dc791ee9d5e088d9d297
            2b4cb609bd7cb17e072db8e7911dbf906410b71df220b06a4871b9f3de41
            be847dd4da1aebe4dd6d51b5d4f4c785d38356986c13c0a86b647af962fd
            ecc9658a4f5c0114d96c0663633d0ffaf50d088dc8206e3b5e10694ce441
            60d5727167a2d1e4033c47d4044bfd850dd26bb50aa5faa8b5356c98b242
            d6c9bbdb40f9bcace36cd832755cdf45cf0dd6dc593dd1abac30d9263a00
            de518051d7c81661d0bfb5f4b42123c4b3569995bacf0fa5bdb89eb80228
            0888055fb2d90cc624e90bb1877c6f2f114c6858ab1d61c13d2d66b69041
            dc760671db01bc20d2982a10d5ef8985b1711fb5b606a5e4bf9f33d4b8e8
            a2c9077834f9000f8ea8099618980ee1bb0d6a7f2d3d6d08976c6491015c
            63e6f4516b6b62616c1cd83065854e0062f2ed95066c7ba5011bc1f40882
            57c40ff5c6d9b06550e9b712eab8be8b7c88b9fcdf1ddd62492dda15f37c
            d38c654cd4fb5861b24dce51b53a7400bca3e230bbd441a5df4ad795d83d
            6dc4d1a4fbf4d6d36ae96943fcd96e34468867add0b860da732d0444e51d
            03335f4c0aaac97c0ddd3c710550aa41022710100bbe86200cc925b56857
            b3856f2009d466b99fe461ce0ef9de5e98c9d9292298d0b0b4a8d7c7173d
            b359810db42e3b5cbdb7ad6cbac02083b8edb6b3bf9a0ce2b6039ad2b174
            3947d5eaaf77d29d1526db048316dc73120b63e3843b64943e6a6d0da85a
            6a7a0bcf0ee49dff099327ae000ab19e077d44930ff0d2a3088768f2011e
            fec206695d5762f7cb67658071366c19e7066b6e761bd4fee02bd3895a7a
            da10cc4add676fdfb9f9f9efbe8e43beb717d58eb060e8a3d6d67e93d1a1
            c4c2d83852f2df4ff167bbd16757bca6dd06b53f4b36b248da2b0dd84c1b
            0aaff64a0336607a0441c3ef60df55df67a8ef8e6e3179be69468cb361cb
            1a8366bca0d26f2536e2685295770ccc03470bbbb91602222f260555be3b
            bac5280bbdb2925ab42b046ab35ca7ffd7c231cfd0b58b9ed92c1daede5b
            b0c2649b26f263ec9ca36a750a936d02a906099c3f360eeb856707721357
            0005824abf95147ab8e2ae2bb17b381bb60c9b8ed2920dbed5e5b7efdc7c
            21dfdb0bd4d2d38642e2d4f1f8b3dd686e83da1fcd16be815b26b9f6e177
            b06f7747b718e65a0888706a0fffca3b06665c0b0111ff9e658f69ae62f8
            d3ff6b6145cf6c1678e20aa0eed20dd75483044ec2b30339612667a7f716
            60d04d476949db776e3e4a6ad1aedc5ad6d9660bdf40f03bd83753aebca9
            c59ebbde7fcfb247e9ffb5301cf2bdbd8ac2baca3093b353a6a3b4240536
            d0ba9306d7cd2957de54bf67d9232e7a66b3b84a61c4021b685d942b6f2a
            37be0bb4a18e0cc31bdf055a8def022d556e6b6e6f776e206572726f7200
            00004e6f206572726f72206f636375726564000000000000000000000000
            0000000000000000000000004d6574686f64206661696c65640000000000
            0000000000000000000000000000000000000000000057726f6e67207061
            72616d6574657220706173656420746f2066756e6374696f6e0000000000
            00004672616d6520697320746f6f206c6f6e670000000000000000000000
            0000000000000000000000004e6f7420656e6f7567682073706163652069
            6e2062756666657200000000000000000000000000004e6f7420656e6f75
            676820737061636520696e20627566666572000000000000000000000000
            000054696d6564206f757400000000000000000000000000000000000000
            0000000000000000000000004672616d6520697320746f6f20736d616c6c
            00000000000000000000000000000000000000000000c0b13c8888880000
            010000000200000004000000010000004865617020616e6420737461636b
            20636f6c6c6973696f6e0a0000002c00002043000000f8b500bff8bc08bc
            9e467047f8b500bff8bc08bc9e4670477504000061040000000000000000
            00000100000040787d01105e5f00105e5f00105e5f00105e5f0040787d01
            ec3000202c00002000000000000000000000000000000000000000000000
            00000000000000000000487e000000000000000000000000000000000000
            000000000000000000000000000000000000000000000000000000000000
            000000000000000000000000000000000000000000000000000000000000
            000000000000000000000000000000000000000000000000000000000000
            000000000000000000000000000000000000000000000000000000000000
            000000000000000000000000000000000000000000000000000000000000
            000000000000000000000000000000000000000000000000000000000000
            000000000000000000000000000000001c0100201c010020240100202401
            00202c0100202c01002034010020340100203c0100203c01002044010020
            440100204c0100204c01002054010020540100205c0100205c0100206401
            0020640100206c0100206c01002074010020740100207c0100207c010020
            84010020840100208c0100208c01002094010020940100209c0100209c01
            0020a4010020a4010020ac010020ac010020b4010020b4010020bc010020
            bc010020c4010020c4010020cc010020cc010020d4010020d4010020dc01
            0020dc010020e4010020e4010020ec010020ec010020f4010020f4010020
            fc010020fc01002004020020040200200c0200200c020020140200201402
            00201c0200201c02002024020020240200202c0200202c02002034020020
            340200203c0200203c02002044020020440200204c0200204c0200205402
            0020540200205c0200205c02002064020020640200206c0200206c020020
            74020020740200207c0200207c02002084020020840200208c0200208c02
            002094020020940200209c0200209c020020a4020020a4020020ac020020
            ac020020b4020020b4020020bc020020bc020020c4020020c4020020cc02
            0020cc020020d4020020d4020020dc020020dc020020e4020020e4020020
            ec020020ec020020f4020020f4020020fc020020fc020020040300200403
            00200c0300200c03002014030020140300201c0300201c03002024030020
            240300202c0300202c03002034030020340300203c0300203c0300204403
            0020440300204c0300204c03002054030020540300205c0300205c030020
            64030020640300206c0300206c03002074030020740300207c0300207c03
            002084030020840300208c0300208c03002094030020940300209c030020
            9c030020a4030020a4030020ac030020ac030020b4030020b4030020bc03
            0020bc030020c4030020c4030020cc030020cc030020d4030020d4030020
            dc030020dc030020e4030020e4030020ec030020ec030020f4030020f403
            0020fc030020fc03002004040020040400200c0400200c04002014040020
            140400201c0400201c04002024040020240400202c0400202c0400203404
            0020340400203c0400203c04002044040020440400204c0400204c040020
            54040020540400205c0400205c04002064040020640400206c0400206c04
            002074040020740400207c0400207c04002084040020840400208c040020
            8c04002094040020940400209c0400209c040020a4040020a4040020ac04
            0020ac040020b4040020b4040020bc040020bc040020c4040020c4040020
            cc040020cc040020d4040020d4040020dc040020dc040020e4040020e404
            0020ec040020ec040020f4040020f4040020fc040020fc04002004050020
            040500200c0500200c0500201405002014050020ffffffff00000200
            <crc>
                1e96
            </crc>
        </region>
        <region name="ACTEL_SYSTEM_BOOT" address="0x081100" retrieveAddressFromFile="false" size="5632" format="HEX" type="Data Storage" wordSize="32" numberWords="1408" memFile="" memType="" memFileTimeStamp="" clientType="private" program="true">
            000400202918086035180860571708603d18086041180860451808604143
            544c421108608008086083080860491808604d1808600000000051180860
            551808606605025380b500f0e7fadff84805016841f004010160c16841f0
            0401c160816941f004018161dff83005dff830150978c90601684ebf41f0
            010149084900016001bd80b500f06ff8dff81405816841f002018160dff8
            04150978890603d4016841f001010160dff8fc04016841f00101016001bd
            f0b4dff8f004dff8f014dff8f0241278cb7803f080031a43027500220277
            dff8e0341c460d78c5f3410504eb450595f82460067095f8255005710d78
            c5f3411504eb450595f82c60067295f82d5005735608cf787d0747bf4ff0
            000c01254ff0010c00253f0746bf012745f00205002703eb860606eb4c06
            be1996f884600674057611f8015b80f8205011f8015b80f8245011f8015b
            80f8285011f8015b80f82c50521c00f230001034062abad3f0bc704710b5
            044611b100f02bfb80b1dff844040068d0f8a400c00c0ebf49f640404ff4
            fa71484384423cbf001b00f03dfb10bd000070b594b0044600a80ff22441
            6cc96cc00ff22c41402200f08cfb002004f00f0300a95d5cc4f301125100
            5e1f042e38bf491c062d70d8dfe805f00419283a4a556c00dff8d02312f8
            2120c2f34102dff8cc3303eb411101eb820101f2900100295ed060064cbf
            4888088859e0dff8a42312f82120c2f34112dff8a03303eb411101eb8201
            01f2a001e9e7dff89023dff8843303eb81035b78db0747bf02ebc10101f2
            b01102eb810101f28011d7e7db4ad84b03eb81039b78db0747bf02ebc101
            01f2b41102eb810101f29811c7e704a951f82310d14b03eb021202eb8101
            01f2e011bce7cb4b03eb8101cb7803f00403c97801f0080103b1012301b1
            0121c74d05eb021202ebc30202eb810101f25011a5e7c448008803e06106
            48bf4ff4004014b070bd2de9f04f8db0044600220023cde90423cde90623
            cde90823cde90a23002900f04e818a462088410505d500f07f00fff755ff
            064617e08005800d4ff4007188420edb4ff44071884207db00f0030004a9
            01ebc000d0e9006706e0aa48066802e0a94951f82060002701200021a278
            00f0f9fa401e61f1000130403940cde90001a088410505d500f07f00fff7
            27ff064617e08005800d4ff4007188420edb4ff44071884207db00f00300
            04a901ebc000d0e9006706e09348066802e0924951f82060002794f80680
            01200021424600f0c9fa401e61f1000106400f40e07818b102284cd004d3
            94e030463946454693e094f80290c8451cd202220223b8f1110f28bf0422
            b8f1210f28bf921cb9f1110f28bf0423b9f1210f28bf9b1c30463946a9eb
            0805eb1ad21800f09cfa06460f461fe0c1451dd202220223b9f1110f28bf
            0422b9f1210f28bf921cb8f1110f28bf0423b8f1210f28bf9b1cdde90001
            a8eb0905eb1ad21800f07dfacde90001454600e04d46dde9000180197941
            4ce0a07808eb00058df80880b3468046dde90091a8f101000121814001ea
            090131fa00f609d001200021424600f05cfa401e80ea090000f101099df8
            0800401e0121814001ea0b0131fa00f70ad0012000219df8082000f047fa
            401e80ea0b0000f1010b5946484600f050fa97ea060f14d006460f460120
            00219df80820424400f032fa401e61f1000170407940401c41f1000102e0
            002500200146e679ae421fd202220223112e28bf0422212e28bf921c112d
            28bf0423212d28bf9b1cad1beb1ad21800f028fa05460f46012000213246
            00f009fa401e61f100012840394004e0b5423cbf721b00f0fef922889205
            920d0123b3405b1e4ff40075aa4209d2224d55f8225025ea030318431f49
            41f8220011e04ff44075aa4206d21a4a12689a4310431849086006e002f0
            030204ab03ebc202c2e900010834baf1010a7ff4b3ae0db0bde8f08f0d48
            0068d0f8a800410d0003000b40f0c04093e6901402400c000240831e0860
            040002400414024004020240801e08603000086010000860ac1008602c00
            086010140240001802400600010203000102030404040407060500000000
            000000000000000000000000000000000000000000000000000000000000
            000000000000010000000200000003000000000000000000000000000000
            13481449a1eb0001a0f10100adeb0102a2f1040202f1010204b4a2f10102
            4fea51010388138000f1020002f10202a1f101010029f5d10848084900bd
            0123036001e0a1f101010029fbd1704700bf0000550e0860650e08608c01
            40429a0200002de9f04782b04ff0000a74480068009000f08cf88046724c
            d4f800904ff400602060b8f1000f08bf00f066f96d4d284600f034fa00f0
            54fa6b4e6c4f307af863d6f805003864d6f809007864d6f87900a0f1c040
            664988420ed2d6f879000068b860e87e4009d6f87910c97801f01f0151ea
            4010786003e0e87e7860a869b860a87ec0f300103860286af860e8697861
            307838617078f866b078b861b6f8030054490860307c7867f07bb867b6f8
            0d00f86700f031fa386b4f490840d6f87d104e4a114008433863fff780fc
            fff7b6fc00f077fafff718ffd6f87d00c0030ed4386b20f480303863d6f8
            7d00000306d500f047f88246386b40f40020386341465046fff782fc3e48
            c168c90744bf3d490160c4f80090d6f87d10c90202d53a494160fee7bde8
            f34700f00cbb00203749096809010909364a891a07d0354a891a04d03549
            0968890748bf012070472f48006800f07041000100092d4a801a06d04ff4
            8912801a07d02c4a801a07d1b1f1a04f8041c00f7047b1f1405ff9e70020
            704710b5264800684403640b204600f002f8204610bd50b522490e682249
            0a6842f040520a60214c02460023a2fb0601400940eac16049091d4a00f0
            d7fa401c60600020a060012020602068c003fcd5002020606060a06050bd
            00004211086008ed00e0981e0860bb1e0860002004e0008208009c2004e0
            0000f9ffffff06000c60004042de15acfa556e4c30020860cf31a10530ce
            5e0a1c2004e030ae4d0a3c1f0860ac1e0860382004e010e000e040420f00
            981e08604ab38b0707d0521e11f8013b00f8013b21d08b07f7d183071ed1
            103a07d330b4b1e83810103aa0e83810f9d230bc530724bfb1e80810a0e8
            081044bf51f8043b40f8043bd20724bf31f8022b20f8022b44bf0b780370
            7047083a07d3b1e80810083a40f8043b40f804cbf7d25307e4e7d2b2203a
            22bf00fa02f1002070475242d041d2f1200291404140d040904041407047
            fc260cb5a0fb0123194610460cbdd2b2203a22bf21fa02f0002170472032
            d141d04048409140d1404840704700002de9f04184b00020adf80000b022
            3649bdf8000000f0bcfaadf800003348056805f2a804bdf80000e1898842
            18bf00f0c5fa0020adf8000018222d49bdf8000000f0a6faadf80000bdf8
            0000a189884218bf00f0b3fa0020adf800006068254e010dca00304040f0
            c041bdf8000000f08ffaadf8000000f0fdf880460027b8f1000f0fd001aa
            02a9384600f0f9f8019a0299bdf8000000f07bfaadf800007f1c4745efd3
            bdf800006189884218bf00f085fa0020adf80000d5f8a800010d8a003040
            40f0c041bdf8000000f061faadf80000bdf800002189884218bf00f06efa
            04b0bde8f08100bf981e0860ac100860801e0860ffff0f0024490a6d0668
            4768d0f80880d0f80c9022f07f0242f04a020a6522f070620a6522f4fe02
            42f494020a6522f0706242f050620a65184c02ea040227ea040342ea0302
            0a65c1f85480144c46ea0403cb6423ea0403cb64124c8d6d25ea040509ea
            040345ea03058d650e4c4d6d15f0004f03d0cd6d15f0010ffbd022f07062
            0a65094c22ea0402436842ea03020a65bde8f0037047002004e00000470f
            40404000ff7f000000000080000047002de9f0030d490e4aa2eb0102a1f1
            0101adeb0203a3f1040303f1010308b4a3f101034fea52020c881c8001f1
            020103f10203a2f10102002af5d100bd69120860151308600b4800680b49
            026943f6fe731a404a620269c2f382424a600269c2f343520a6040696422
            b0fbf2f04861704700000000ac100860242004e0f0b400201149532240f2
            ff334509a0eb45140f4e366806eb850504f10a06202e3cbf6d6b25fa04f4
            07d3ae6bc4f12007be406d6b25fa04f434431c4041f8044b0a30521ee2d1
            f0bc704700bf002104e0ac1008603f480068d0f8ac00000d704730b43d4b
            3b4c2468d4f8ac401c4044f0c04454f8305004ebc00040682b4043f0c043
            0b60290d05f0030310f0030002d0022805d006d2581c4843106030bc7047
            581df9e730bc00f079b938b529480068d0f8ac00040d0ad02749084040f0
            c045d5e9000100f004f80835641ef8d131bd38b5050d204a024042f0c044
            8a08920001f0030310f0030004d0012808d003280cd02ce02946204601b0
            bde830402de02946204601b0bde830405be0bbb1022b01d00bd31be0002d
            1bd02068800880006168016008346d1ef7d131bd002d10d054f8040b42f8
            040b6d1ef9d131bd002d07d054f8040b10606d1efad131bd00f025f931bd
            ac100860fcff0f0070b51bb1022b10d007d32ae059b310f8013b1370491e
            fad170bd21b310f8013b02f8043b491ef9d170bd026892089200031dc1b1
            13f8054b147000f205008208920000f003041568e600f54052f8046fe200
            c2f1200206fa02f22a43491ee9d170bd00f0edf870bd70b51bb1022b10d0
            07d32ae059b330f8023b1380491efad170bd21b330f8023b22f8043b491e
            f9d170bd026892089200031dc1b133f8064b148000f206008208920000f0
            03041568e600f54052f8046fe200c2f1200206fa02f22a43491ee9d170bd
            00f0b9f870bd034a12681068d2f804e080f30888704708ed00e013f0004c
            03d55b42524263f100039cea210c15d11b4229d109424cd12ab18446b0fb
            f2f002fb10c2704700f0e7b8fcd30022002370470b000200002100207047
            10b5644603d34942404261f10001fff7e1ff640004d34942404261f10001
            244203d55b42524263f1000310bd904271eb030ce0d370b5b1fa81f4b3fa
            83f52c1ba340c4f1200532fa05f63343a2405ff00046e64002e05b085fea
            3202841a71eb030524bf204629467641f4d302000b003000002170bd012a
            b9d970b5140c20d0b1fa81f4b2fa82f5c4f120046419b4f12006d6d3b240
            5ff00044f440002502e052085fea3303c61a71eb020e24bf304671466441
            6d41f3d302000b002000290070bd0c46b1fbf2f102fb11452d0445ea1045
            b5fbf2f402fb145580b240ea0545b5fbf2f002fb105240ea044070bd0000
            30b46ab1084b521e80b20412a4b211f8015b6c4033f8144084ea0020002a
            f2d180b230bc704700bf0006086030b41448144901600ff2540013494ff0
            0052002314468c42fbd21d5c04f8015b5b1c202bf7d30023f5e730b40948
            0a4901600ff24c0009494ff00052002314468c42fbd21d5c04f8015b5b1c
            202bf7d30023f5e710600040fa556e4c0010002053595320424f4f542043
            4f4e464947204441544120435243204641494c4544002d2d2d2d53595354
            454d20424f4f542048415244204641554c542d2d2d2d2d00704700000549
            09680029054800d0086880f308884ff000007047000008ed00e000400020
            fff7eeff002801d0c046c0460020fff73bfb00f000f880b500f002b800bf
            00000746384600f002f8fbe7000001491820abbefbe726000200c046c046
            c046c046fff7defffff7febffff78dbffff7febffff7febffff7febffff7
            febffff7febffff7febffff7febf00000000000000000000000000000000
            000000000000000000000000000000000000000000000000000000000000
            000000000000000000000000000000000000000000000000000000000000
            000000000000000000000000000000000000000000000000000000000000
            000000000000000000000000000000000000000000000000000000000000
            000000000000000000000000000000000000000000000000000000000000
            000000000000000000000000000000000000000000000000000000000000
            000000000000000000000000000000000000000000000000000000000000
            000000000000000000000000000000000000000000000000000000000000
            000000000000000000000000000000000000000000000000000000000000
            000000000000000000000000000000000000000000000000000000000000
            000000000000000000000000000000000000000000000000000000000000
            000000000000000000000000000000000000000000000000000000000000
            000000000000000000000000000000000000000000000000000000000000
            000000000000000000000000000000000000000000000000000000000000
            000000000000000000000000000000000000000000000000000000000000
            000000000000000000000000000000000000000000000000000000000000
            000000000000000000000000000000000000000000000000000000000000
            000000000000000000000000000000000000000000000000000000000000
            000000000000000000000000000000000000000000000000000000000000
            000000000000000000000000000000000000000000000000000000000000
            000000000000000000000000000000000000000000000000000000000000
            000000000000000000000000000000000000000000000000000000000000
            000000000000000000000000000000000000000000000000000000000000
            000000000000000000000000000000000000000000000000000000000000
            000000000000000000000000000000000000000000000000000000000000
            000000000000000000000000000000000000000000000000000000000000
            000000000000000000000000000000000000000000000000000000000000
            000000000000000000000000000000000000000000000000000000000000
            000000000000000000000000000000000000000000000000000000000000
            000000000000000000000000000000000000000000000000000000000000
            000000000000000000000000000000000000000000000000000000000000
            000000000000000000000000000000000000000000000000000000000000
            000000000000000000000000000000000000000000000000000000000000
            000000000000000000000000000000000000000000000000000000000000
            000000000000000000000000000000000000000000000000000000000000
            000000000000000000000000000000000000000000000000000000000000
            000000000000000000000000000000000000000000000000000000000000
            000000000000000000000000000000000000000000000000000000000000
            000000000000000000000000000000000000000000000000000000000000
            000000000000000000000000000000000000000000000000000000000000
            000000000000000000000000000000000000000000000000000000000000
            000000000000000000000000000000000000000000000000000000000000
            000000000000000000000000000000000000000000000000000000000000
            000000000000000000000000000000000000000000000000000000000000
            000000000000000000000000000000000000000000000000000000000000
            000000000000000000000000000000000000000000000000000000000000
            000000000000000000000000000000000000000000000000000000000000
            00000000000000000000000000000000000000000000
            <crc>
                0a8d
            </crc>
        </region>
        <region name="ACTEL_AB_MSS_CONFIG" address="0x083e00" retrieveAddressFromFile="false" size="208" format="HEX" type="Data Storage" wordSize="32" numberWords="52" memFile="" memType="" memFileTimeStamp="" clientType="private" program="true">
            000000000000000000000000000000000000000000000000000000002645
            25e083448180000000000208200180f0fa0201000052000000000000001e
            1a0707000500100005001000000000002bacb0c20a2bacb0c20a2bacb0c2
            0a2bacb0c20a1860a080021828a0000018acb0c20a2bacc081020a70b0c2
            0a2bacb0c20a2bacb0c20a2bacb0c20a2bacb0c20a2bacb0c20a2bacb0c2
            0a2bacb0c20a2bacb0c20a2bacb0c20a2bacb0c20a2bacb0c20a2bacb002
            00000000e8ff080090d0030080ff030088ff13000000a6230000fb9a
            <crc>
                62fc
            </crc>
        </region>
        <region name="ACTEL_INIT_CONFIG" address="0x07ff00" retrieveAddressFromFile="false" size="16" format="HEX" type="Data Storage" wordSize="32" numberWords="4" memFile="" memType="" memFileTimeStamp="" clientType="private" program="true">
            10600040fa556e4c83ff130002000000
            <crc>
                0e8b
            </crc>
        </region>
    </nvm>
</Actel_Data_File>
