<Actel_Data_File>
    <format name="NVM File" version="01.00.00"/>
    <header>
        <die>
            A2F200M3F
        </die>
        <family>
            SmartFusion
        </family>
        <module>
            envm
        </module>
        <package>
            484 FBGA
        </package>
        <version>
            9.1.3.4
        </version>
    </header>
    <nvm>
        <region name="eNVM" address="0x000000" retrieveAddressFromFile="false" size="16052" format="HEX" type="Data Storage" wordSize="32" numberWords="4013" memFile="D:\Work\marmote\projects\IPstack\softconsole\ManualNetworkFrames\Release\ManualNetworkFrames.hex" memType="INTELHEX" memFileTimeStamp="1317756244" clientType="public" program="true">
            0000012099020000f9020000fb020000fd020000ff020000010300000000
            000000000000000000000000000003030000050300000000000007030000
            090300000b0300000d0300000f0300001103000013030000350b00001703
            0000190300001b0300001d0300001f030000210300002303000025030000
            27030000290300002b0300002d0300002f03000031030000330300003503
            000037030000390300003b03000000000000000000000000000000000000
            00000000000000003d0300003f0300004103000043030000450300004703
            0000490300004b0300004d0300004f030000510300005303000055030000
            57030000590300005b0300005d0300005f03000061030000630300006503
            000067030000690300006b0300006d0300006f0300007103000073030000
            7503000077030000790300007b0300007d0300007f030000810300008303
            00008503000087030000890300008b0300008d0300008f03000091030000
            930300009503000097030000990300009b0300009d0300009f030000a103
            0000a3030000a5030000a7030000a9030000ab030000ad030000af030000
            b1030000b3030000b5030000b7030000b9030000bb030000bd030000bf03
            0000c1030000c3030000c5030000c7030000c9030000cb030000cd030000
            cf030000d1030000d3030000d5030000d7030000d9030000db030000dd03
            0000df030000e1030000e3030000e5030000e7030000e9030000eb030000
            ed030000ef030000f1030000f3030000f5030000f7030000f9030000fb03
            0000fd030000ff0300000104000003040000050400000704000009040000
            0b0400000d0400000f040000110400001304000015040000170400001904
            00001b0400001d0400001f04000021040000230400002504000027040000
            2904000064488047644800280bd164486449654a884206d091421cbf50f8
            043b41f8043bf8d161486149624a884206d091421cbf50f8043b41f8043b
            f8d15e485e495f4a914218bf41f8040bfad15d480ff2030e00474ff00000
            4ff00001dff868f1fee7fee7fee7fee7fee7fee7fee7fee7fee7fee7fee7
            fee7fee7fee7fee7fee7fee7fee7fee7fee7fee7fee7fee7fee7fee7fee7
            fee7fee7fee7fee7fee7fee7fee7fee7fee7fee7fee7fee7fee7fee7fee7
            fee7fee7fee7fee7fee7fee7fee7fee7fee7fee7fee7fee7fee7fee7fee7
            fee7fee7fee7fee7fee7fee7fee7fee7fee7fee7fee7fee7fee7fee7fee7
            fee7fee7fee7fee7fee7fee7fee7fee7fee7fee7fee7fee7fee7fee7fee7
            fee7fee7fee7fee7fee7fee7fee7fee7fee7fee7fee7fee7fee7fee7fee7
            fee7fee7fee7fee7fee7fee7fee7fee7fee7fee7fee7fee7fee7fee7fee7
            fee7fee7fee7fee7fee7fee7fee7fee7fee7fee7fee7fee7fee7fee7fee7
            fee7fee7fee7fee7fee7fee7fee7fee7fee7fee7fee7fee7fee7fee7fee7
            fee7fee7fee7fee7fee7fee7fee7fee70000352400000000000060040000
            600400008c3900008c39000000000020280500200000000028050020482b
            002035260000d905000040f22853c2f200031a780ab901201870704700bf
            40f20000c2f2000008b503682bb140f20003c0f2000303b1984708bd30b5
            002085b00390039b4cf2bf62c0f22d02934205d8039d6c1c039403999142
            f9d940f27464c2f20004226843f2000542f40013d84302212322c4f20105
            c5f8880010230025ff208df804108df80620202130228df807308df80920
            8df808108df8055001f04efc0395039b4cf2bf62c0f22d02934205d8039b
            581c039003999142f9d9226843f2000342f48001c843c4f20103c3f88800
            00f040fa0022039203994cf2bf62c0f22d02914205d8039b591c0391039b
            9342f9d9216843f2000341f40002d243c4f20103c3f8882000220392039b
            4cf2bf62c0f22d02934205d8039b01330393039b9342f9d941f0807143f2
            0003ca43c4f2010320f4017cc3f888204cf0a30001f065fb002103910398
            4cf2bf62c0f22d02904205d803994b1c039303989042f9d9216843f20000
            41f00073da43c4f20100c0f8882001a800f0fffd05b030bd00bf70b5ccb0
            00f072f81b20052100f0a6f81a20052100f0a2f81920052100f09ef81820
            052100f09af81720052100f096f81620052100f092f81520052100f08ef8
            0521142000f08af800234b934b9a4cf2bf6340f27464c0f22d03c2f20004
            4ff000619a42216005d84b9e751c4b954b989842f9d943f200066ff00160
            c4f20106c6f88800fff718ff236843f2f42543f08061c0f20005ca43ec46
            c6f8882095e80f00ace8070005f1100114220df10e00acf8003001f0faff
            05f1240108220df1220001f0f3ff40f27451c2f200010df12a004ff48072
            01f0e9ff6c4620464ff495714ff0ff3200f0f5fff7e742f20003cef20403
            186b43f2203c40f480424ef20010f0b41a63c0f2000ccef2000000230124
            9a1c3cf803103cf8023001f01f0703f01f0514fa07f714fa05f50eb21bb2
            59097609931c60366031402b40f8267040f82150e5d142f20003cef20403
            1a6b22f480401863f0bc704700bf1f2801d900be704743f22032c0f20002
            02eb8000036c1960704700bf1f2801d900be704740f20003c4f2262300f5
            886043f82010704700bf1f2810b402d900be10bc704701291dd018d20123
            03fa00fc43f20003c4f2010343f22032d3f88810c0f2000202eb8000026c
            21ea0c01c3f88810116841f004001060e1e7022917d000bedde7814043f2
            0003c4f2010343f22032d3f88840c0f2000202eb8000026c2143c3f88810
            116841f004001060c7e743f2203cc0f2000c0ceb80010b6c186820f00402
            1a60bbe71f2810b402d900be10bc704743f22033c0f2000333f810c00124
            0cf01f02944003eb80010a6c4ef2001310680ffa8cf140f008004909cef2
            0003106043f82140e2e700bf1f2801d900be704743f2203cc0f2000c0ceb
            80010b6c186820f008021a6070471f2810b402d900be10bc704743f22033
            c0f2000333f810c001220cf01f0412fa04f412fa00f00ffa8cf1490943f2
            00024ef20013c4f20102cef200036031c2f8800043f82140dfe730b41346
            c2b30d7843f2e03480ea050202f0ff0cc0f2000454f82c505a1e85ea1020
            02f001050122934225d965b191f801c0022280ea0c0505f0ff0c54f82c50
            934285ea102017d911f802c0013280ea0c0505f0ff0c54f82c5011f802c0
            85ea102080ea0c0505f0ff0c54f82c500132934285ea1020e7d830bc7047
            30b403460a4600293bd0007843f2e034c14301f0ff0cc0f2000454f82c50
            511e6ff07f4085ea000001f0010501218a4225d965b193f801c0022180ea
            0c0505f0ff0c54f82c508a4285ea102017d913f801c0013180ea0c0505f0
            ff0c54f82c5013f801c085ea102080ea0c0505f0ff0c54f82c5001318a42
            85ea1020e7d830bc70474ff0ff30fae740f22c53c2f20003196840f27863
            43f20002c2f20003c4f20002994210b49069146a08d093f804c01cf0010f
            03d003f5115188426dd000be40f20003c4f20623d3f87816d3f85826081e
            18bf01200ab140f0020040f20001c4f20621d1f854260ab140f0040043f2
            0002c4f20002136bc3f38133022b08bf40f0100008d0032b08bf40f01800
            03d0012b08bf40f0080040f20003c4f20623d3f8241609b140f0200040f2
            0001c4f20621d1f81c260ab140f0400040f20002c4f20622d2f818360bb1
            40f0800040f20003c4f20623d3f8101609b140f4807040f20001c4f20621
            d1f80c260ab140f4007040f20002c4f20622d2f808360bb140f4806040f2
            0003c4f20623d3f8001609b140f4006010bc704703f544600c3084428cd1
            8ce700bf40f22c53c2f20003196840f2786343f20002c2f20003c4f20002
            994230b49469156a08d093f804c01cf0010f03d003f511518c4212d000be
            d97a417193f80ac080f804c05a7ac270197a817093f807c080f801c09b79
            037030bc704703f544620c329542e7d1e7e7ec462cf007018d4640f22c51
            c2f200012de97850086840f2786343f20002c2f20003c4f2000298429469
            156a07d0187910f0010f03d003f5115294423ed000be43f20002c4f20002
            906a10f4803f02bf4cf6e753c0f2010393621ed010f0010204d0194c0122
            256bad18256310f0400f17d0154d43f200006e684cf6e754c4f200000136
            c0f201046e60846242f00200db6e4a68934200d09847bde8794085467047
            43f200004cf6e754c4f20000c0f201048462002af0d00120e9e703f54460
            0c308542bbd1bbe7f82a002040f22c52c2f2000270b440f27863146843f2
            0001c2f20003c4f200019c428d690e6a08d093f804c01cf0010f03d003f5
            1154a54214d000be546840f200020021c4f20622a042c2f80017d866c2f8
            181704d00123c2f80037c2f8183770bc704703f544610c318e42e5d1e5e7
            40f22c53c2f20003196840f2786343f20002c2f20003c4f20002994210b4
            9069146a08d093f804c01cf0010f03d003f51151884211d000be59794a42
            50b20728d5bf094b43f2e07000eb8000c0f20000d8bf03ebc00010bc7047
            03f544600c308442e8d1e8e700bff037000040f22c53c2f20003196840f2
            786343f20002c2f20003c4f20002994230b49469156a08d093f804c01cf0
            010f03d003f511518c4246d000be112841d8dfe800f03d3a3734312e2b28
            25221f1c191613100d091f4a906c30bc70471d49486cfae71c4b1868f7e7
            1a4ad06bf4e71849886bf1e7174b586beee7154a106bebe71449c86ae8e7
            124b986ae5e7114a506ae2e70f49086adfe70e4bd869dce70c4a9069d9e7
            0b494869d6e7094b1869d3e7084ad068d0e706498868cde7054b5868cae7
            0020c8e703f544620c329542b3d1b3e7f82a0020382b002040f27862c2f2
            0002d2f86c1c70b401f511700301995802f5125311f0804f02d09d686c1c
            9c6011f4804f02d0d868461cde6011f4006f02d01d696c1c1c6111f4007f
            02d15869461c5e6111f4807f02d19d696c1c9c6111f0800f02d0d869461c
            de6111f0400f02d01d6a6c1c1c6211f0020f02d05e6a711c596243f20004
            c4f20004206cd2f86c6c9d6adc6a20f07f4c2cf47e01c0f34b4040190919
            06f5117cd96298624fea0c1c4ff000434cf80230d2f86c0c40f20003411c
            01f00300c2f86c0cc4f206230122c3f8042670bc704740f20003c4f20623
            70b5d3f80c4640f27865d4f1010438bf0024c2f200050026d5f86c3c03f5
            117105eb011300e000241a68002a0adb4cb1186800f40342b2f5407ff4d0
            fff774ff0136e9e7304670bd40f22c50c2f20000026810b540f2786443f2
            0003c2f20004c4f20003a2429969186a08d094f804c01cf0010f03d004f5
            115e714514d000befff7baffd4f86c1c40f2786301f5117212011059c2f2
            0003002803dbd058c0f30d4010bd002010bd04f544610c318842e5d1e5e7
            43f20002c4f2000240f27863916dc2f2000340f2000010b4c4f20620b3f8
            664089b24ff6ff72d0f85806a14298bf0022c1eb040c624410b902eb8204
            62009c6e40f27860a242c2f2000010d2a21a8266986e4cf23f5200eb8000
            4000c4f22532a2fb00c0a3f86610400910bc704700228266ede740f27863
            4df6904070b5c2f20003c0f2010043f200069866c4f20006b26d40f20005
            a3f86620c4f20625002408e05cb9c5f80446fff7aaff002808bf6ff00504
            b16a11f4c02ff2d1204670bd40f278634df6904070b5c2f20003c0f20100
            43f200069866c4f20006b26d40f20005a3f86620c4f20625002408e05cb9
            c5f83446fff784ff002808bf6ff00504b16a11f4e00ff2d1204670bd2de9
            f04f40f27864c2f20004227940f2c003bbb0c0f600234ff0004112f00202
            3691379340f09380379d06a945f480004027379003923891a5233992a420
            a125a0264ff09d0801974ff09c09e27a94f806b0059294f807a03aaa277a
            94f809e0551991449044961994f80ac009f8d0bc101808f8d0ac06f8d07c
            05f8d0ec059dd21800f8d0cc039840f2786302f8d05c019a0918c2f20003
            002093f80c805f7b9e7bdd7b93f810e093f811c0063081f800804f700e71
            4d7181f808e081f809c006330c318242e8dcfff774ff00b100befff74aff
            00b100be43f2000640f200024df69040c4f20006c4f20622c0f201000127
            36a93162c2f83476a066b36d0025a4f8663007e065b9b760fff7f3fe0028
            08bf6ff00505b36ac3f3025cbcf1060ff1d1fff747ff10bb164843f20002
            40f20003c4f206230121c4f200021062c3f83416c3f8041628463bb0bde8
            f08f002606a90c275a223891b146399609230820052504264ff001080397
            01926ee74ff0ff3e84f805e0fff71dff0028d4d000bed2e700bfc4120020
            40f22c53c2f20003196840f2786343f20002c2f20003c4f200029942f0b4
            9469156a09d093f804c01cf0010f04d003f511518c4200f0298100be90f8
            00c01cf0010f00d000be42791979da7290f804c040f2786283f80ac090f8
            03c011f0020f83f809c090f802c0c2f2000283f808c090f801c083f807c0
            0078987100f0038192f8601011f0010f40f0fd8092f85a70d67a957a547a
            92f808c0d079917917f0010f82f8656082f8645082f8634082f862c082f8
            610082f8601040f0e48092f8547082f85f6017f0010f82f85e5082f85d40
            82f85cc082f85b0082f85a1040f0d28092f84e7082f8596017f0010f82f8
            585082f8574082f856c082f8550082f8541040f0c08092f8487082f85360
            17f0010f82f8525082f8514082f850c082f84f0082f84e1040f0ae8092f8
            427082f84d6017f0010f82f84c5082f84b4082f84ac082f8490082f84810
            40f09c8092f83c7082f8476017f0010f82f8465082f8454082f844c082f8
            430082f8421040f08a8092f8367082f8416017f0010f82f8405082f83f40
            82f83ec082f83d0082f83c1078d192f8307082f83b6017f0010f82f83a50
            82f8394082f838c082f8370082f8361067d193f82a70dd7a9c7a93f809c0
            187ad9799e7940f2786217f0010f83f8355083f8344083f833c083f83200
            83f8311083f83060c2f200024bd192f8243082f82f5013f0010f82f82e40
            82f82dc082f82c0082f82b1082f82a603ad1937f82f8295013f0010f82f8
            284082f827c082f8260082f8251082f824602ad1137e82f8235013f0010f
            82f8224082f821c082f82000d17796771cd1937c557713f0010f147782f8
            1bc090765176167611d1137bd57513f0010f947582f815c01075d1749674
            06d116735574147482f80fc090735173f0bcf6e503f544620c3295427ff4
            d1aed0e6f8b540f22c54c2f20004226840f2786443f20003c2f20004c4f2
            0003a24205460e469969186a07d0277917f0010f03d004f5115c614556d0
            00be06f17f424ff6fd7e501ecff6ff6e70453ad800befff7e3fc7a2707fb
            06fe4cf6cd4cccf6cc4cacfb0e1343f20000da08a266c4f20000816da4f8
            66100020d4f86c7c07f5117104eb01110a6840f27863002ac2f200030ada
            30bbb6f1ff3ff4d0fff71bfdd0f1010038bf0020e7e7d8b9086803eb071c
            0cf51052c0f30d41936c081f2b6080b2f8bdfff7a9fcb6f1ff3fd4d0002e
            c0d143f20007a666c4f20007bb6da4f86630c9e70020f8bd04f544610c31
            8842a3d1a3e700bf2de9f84540f22c53c2f2000340f278641f6843f20006
            c2f20004c4f20006a742054688469246b169306a07d0227912f0010f03d0
            04f5115c614552d000be9b689d424cd00af17f464ff6fd7e701ecff6ff6e
            704531d800befff764fc7a2202fb0afe4cf6cd4cccf6cc4cacfb0e1343f2
            0000de08a666c4f20000836da4f866300020d4f86c6c06f5117104eb0111
            0a6840f27863002ac2f200030ada50b9baf1ff3ff4d0fff79cfcd0f10100
            38bf0020e7e7e0b10020bde8f885fff733fcbaf1ff3fddd0baf1000fc8d1
            43f20001c4f868a0c4f200018a6da4f86620d0e700beb0e704f544610c31
            8842a7d1a7e70a68c2f30d410c1fa4b2444526d803eb061303f51050836c
            dcb11b1913f801cd611e2d1905f801cd01f001000a4681b128b113f8011d
            013a05f8011d09d013f8010d023a05f8010d13f801ed05f801edf5d1fff7
            88fb2046bde8f8850538bde8f8852de9f84540f22c53c2f2000340f27864
            1f6843f20005c2f20004c4f20005a742064688469246a969286a08d02279
            12f0010f04d004f5115c614500f0f58000be22799b689e4200f0ed80b8f1
            0b0f00d800be12f0080f04d140f2ea50804500d900be0af17f414ff6fd7c
            4a1ecff6ff6c624532d800be7a2000fb0af24cf6cd4cccf6cc4cacfb0213
            43f20007d908a166c4f20007bd6da4f8665043f20005c4f2000500210127
            226f1001031903f544620c321368002b0cda61b9baf1ff3faf60f7d0fff7
            e5fb002814bf00216ff00501e9e769b10020bde8f885baf1000f40f0aa80
            206f00010219d2f84c3c002bf1db05190021c5f8501c227940f2786312f0
            040fc2f200031fbf1a6f03eb0213d3f8502c42f0806218bfc3f8502c206f
            04eb0015d5f8501c40f2ec5041f0c042c5f8502c236f804538bf404604eb
            0315d5f8501c48ea0102c5f8502cd4f8603c226f43f0007102f1c50cc4f8
            601c04eb0c156b68e0b1361816f801cd411e1b1803f801cd01f001050a46
            81b12db116f801cd4a1e03f801cd09d016f8011d023a03f8011d16f8015d
            03f8015df5d1226f04eb0212d2f84c3c264a13f4006f02d0516b4d1c5563
            13f4806f02d0916b4d1c956313f4007f02d0d16b4d1cd56313f4807f03d0
            1c490d6801350d6013f0020f02d0956c691c9164556c216fc3f3c3035b19
            536404eb01154ff00043c5f84c3c216f40f200024d1c43f20003012105f0
            0105c4f20622c4f200032567c2f834169960bde8f88500be10e704f54461
            0c3188427ff405af05e7baf1ff3f3ff42eaf1ae7f82a0020382b002040f2
            2c52c2f200022de9f04740f27864176843f20003c2f20004c4f20003a742
            0d46064699691b6a08d0207910f0010f04d004f5115c614500f0fe8000be
            2079002e00f09e8093689d4200f0f38026b306eb460195f800c049008a1f
            1cf0010fc2f3400200d100be06238b4215d02ab115f803c01cf0010f0cd1
            0ae015f803c01cf0010f00d100be0633ea5c12f0010f00d100be06338b42
            f0d10f2e40f2d38040f2786320f00201c2f200032171a3f1400000215a1e
            83f84b10531e834282f84b10f7d1002e58d006212846fef7b0ff4ff0010a
            00f007080afa08f1c0f3c502131993f80cc006f1ff3941ea0c071f73af1d
            b24509f00109d0463edab9f1000f15d006213846fef793ff00f007080afa
            08f1c0f3c502131993f80cc04ff0020841ea0c07b0451f7305f10c0725da
            06213846fef77dff00f007030afa03f1c0f3c502131993f80cc0b81d41ea
            0c021a730621fef76dff00f0070c0afa0cf1c0f3c5031b191a7b08f1010c
            0cf1010841ea02000c37b0451873d9dbbde8f047fff7e9ba40f002052571
            37463f4b94f80bc0da1982f805c0a17a06eb46061171657a701cd57094f8
            08c004eb400080f80cc0e17903f15a0c5170a5791346c2eb0c01063903f8
            065bc1f34005811d6345d4d08db1e57a5d71a57a1d71657add70257a0d73
            e57900f10c015d70a079187002f10c036345c1d0e07a1a465871a07a1871
            607ad870207a0873e0795870a07902f8060be07a5071a07a1071607ad070
            207a8874e0790c315070a2799a710c336345e1d1a2e700be0ae704f54461
            0c318b427ff4fcaefce6062707fb06f740f002002071afb1ed19791e0b4a
            15f801cd0b4601f802c001f0010153b119b915f8010d013b985415f8011d
            013b9954002bf5d10e2e82dd79e700bf8406002040f22c53c2f200031968
            40f2786343f20002c2f20003c4f20002994210b59069146a08d093f804c0
            1cf0010f03d003f5115e70450ad000be00f0a4fb012800d010bd00f0a7fb
            40f0010010bd03f544600c308442efd1efe740f22c50c2f2000038b50268
            40f2786443f20003c2f20004c4f20003a2429969186a07d0257915f0010f
            03d004f5115c614525d000be00f05dfbfff7b5ff10f0010f054601d12846
            38bdfff7ebf908b1607100befff7c0f908b1607100be40f20003c4f20623
            0122c5f34000c3f85806c3f80426c3f82426c3f83426284638bd04f54461
            0c318842d4d1d4e740f22c53c2f20003196840f2786343f20002c2f20003
            c4f20002994270b504469069156a08d093f804c01cf0010f03d003f5115e
            704574d000befff7adf900b100befff783f900b100be40f20003c4f20623
            04f00100c4f34001c4f3800504f01802c3f85456c3f87806c3f85816182a
            16d8dfe802f04d1515151515151542151515151515153715151515151515
            0d0043f20001c4f200010a6b42f440450d6340f20005c4f20625c4f34013
            04f0020cc4f38011c4f3c010c4f34024c5f81806c5f824364cea8300c5f8
            1c16c5f80c4600f0fefa0123c5f80436c5f83436bde8704047e743f20003
            c4f20003186b20f4404e4ef400411963d2e743f20005c4f200052a6b22f4
            404c4cf480402863c7e743f20001c4f200010b6b23f440420a63bee703f5
            44600c30854285d185e700bf2de9f04fa74c83b040f20002c4f206228446
            94e80300adf80410012100901346116018680128fcd043f20005c4f20005
            2b68b3f17e4f00d000be43f20007c4f20007be6ab6f1704f00d000be43f2
            0002c4f20002116b40f24008c3f20028414500d000be40f22c55c2f20005
            40f278646868c2f200044ff0000ee06684f804e084f805e0a4f866e084f8
            0be084f80ae084f809e084f808e084f807e084f806e0a4f15a0123465e1e
            83f865e0731e00208b4286f86500f6d17b4f7c4ea7f1400e3146f04681f8
            f30581f8f20540f2f2535a1e531e8854c854002bf9d101f5be6104314145
            eed17248dff8d4a1dff8d481c4f86c3c3b6299468364c3467b625146c364
            fb60cef80030bb62c0f8c0304364bb608365fb61c3657b600365fb624365
            7b618366bb61c3663b6103667b64436683673b63c367fb6303677b634367
            bb63bb64a36681f8eb9581f8ea9540f2ea535a1e531e01f8029001f80390
            002bf7d101f5bc610c315945ecd143f20002c4f200024ff000494ff4be61
            c4f8543c2367c4f8583c2260c4f84c3cc4f8503cc4f8643cc4f8683cc4f8
            5c3cc4f8603ccef8009041648664434ec0f8509041658665414ec0f86090
            41668666404ec0f8709041678667416f384e41f00079a6f5f151c0f87490
            87f800c0c4f854acc4f8641cd4f8607c40f20001c4f2062147f00070c4f8
            600c0b651768012027f47c571760cb614b601768bcf11f0f27f460271760
            176827f07c071760c1f8400b976d6fea17476fea07479765c1f81836c1f8
            5406c2f818e0c2f82080c1f8400729d800f06ff903202071fff7fdfd9df8
            02209df801309df805609df804e09df803c09df800702272e371a9680020
            a771e67284f80ae084f809c0fff773fc40f20003c4f206230122c3f83426
            c3f8042603b0bde8f08f00f01ff996f800c0bcf11f0fced900becce73039
            0000f82a0020e8120020782a0020dc180020d01e0020c4240020ec060020
            c4120020f0b440f20002c4f206224ff0010c002382b0c2f848c9c2f844c9
            154666461c46c5f840490194019f132f05d8019a571c0197019a132af9d9
            c5f840690194019f132f05d8019a571c0197019a132af9d90133202be4d1
            274a8700167807f07c04f50105f4786045f2020644ea0003002908bf4ff4
            c04640f2000000271e43c4f206204ff0100c4ff400423c460125c0f84049
            0194019b132b05d8019b01330193019b132bf9d932420cbf00230123c0f8
            4439c0f840590194019b132b05d8019b01330193019b132bf9d95208bcf1
            010c0dd0d1f1010338bf0023022a14bf002303f00103002bd2d0c0f84879
            cfe702b0f0bc7047f82a002030b5002183b0fff77fff002240f20001c4f2
            062110464ff4004c14460125c1f840490194019b132b05d8019b01330193
            019b132bf9d9d1f84c390bb140ea0c00c1f840590194019b132b05d8019b
            01330193019b132bf9d90132102a4fea5c0cddd140f200030022c4f20623
            c3f8402901920199132905d8019b5a1c019201991329f9d903b030bd30b5
            0c4683b00121fff73aff002140f20002c4f206224ff4004c08460125c2f8
            40090190019b132b05d8019b01330193019b132bf9d91cea040f0cbf0023
            0123c2f84439c2f840590190019b132b05d8019b01330193019b132bf9d9
            013110294fea5c0cdbd140f200010022c4f20621c1f84029019201981328
            05d8019a501c0190019b132bf9d903b030bdf8b5114f00244ff6fd760220
            3c70fff76dff411e8bb201340220b342e4b20a4d10d93c70fff762ff421e
            90b2b04209d9631cdcb2202ce8d14ff0ff3c85f800c0ff20f8bd2878f8bd
            f82a0020002010b54ff40041fff78eff00204ff49451bde8104087e738b5
            0020fff740ff40f4905189b20020fff77eff002440f2e7350120fff734ff
            013480f02000ac42ccbf0023012313ea5013f2d138bd00bf08b50120fff7
            24ffc0f3800008bd00bf08b51220fff71cff034610f4006018bf042013f4
            806f1cbf40f00200c0b208bd10b504460420fff70bff14f0020f40f4f071
            89b203d121f4c0721004010c14f0040f03d121f4a0710b04190c0420bde8
            104039e710b504460020fff7f1fe012c0cbf40f4804180f4804189b20020
            fff72bff0020bde81040e2e600bfeff309800046704780f30988704700bf
            eff308800046704780f30888704700bfeff31280704700bf80f311887047
            00bfeff31080704700bf80f31088704700bfeff31380704700bf80f31388
            704700bfeff31480704700bf80f31488704700bf00ba704740ba7047c0ba
            704790faa0f0704700bfd0e84f0fc0b27047d0e85f0f80b2704750e8000f
            704700bfc1e8400f704700bfc1e8500f704700bf41e80000704700bf7047
            00bf30b443f6381c84b0c0f2000c6d469ce80f0085e80f0042f20003cef2
            0403986c996c9a6cdd6c0df1100c00f00c04db6cc1f30110c2f381110ceb
            8102c5f30421013113f4005f40f61c0364440ceb8000c6f2080354f8105c
            50f8104c52f8100c1a6844f24133c4f6544318bf49009a4219d000be47f6
            4002c0f27d1240f20803c2f20003b2fbf5f5b2fbf4f4b2fbf0f0b2fbf1f1
            5a615d609c60d86019611a6004b030bc704740f64003c6f208031a6840f2
            003322f07f42c0f201039a42d8d9b2f5003f07d241f22c63c6f208031a68
            002ad3d1cde7b2f5403fcad241f6ac63c6f208031a68002ac8d1c2e74ff0
            ff30704700bf42f64433c2f200030c221a604ff0ff30704700bffee700bf
            42f64433c2f200030b221a604ff0ff30704700bf4ff400534b6000207047
            00bf012070470120704742f64433c2f2000316221a604ff0ff30704700bf
            42f64433c2f200031f221a604ff0ff30704700bf002070474ff0ff307047
            00bf002070474ff400534b600020704700bf4ff0ff30704700bf42f64433
            c2f2000302221a604ff0ff30704700bf42f64433c2f200030a221a604ff0
            ff30704700bf0020704708b540f23853c2f200031a683ab1eff308811018
            814208d31860104608bd42f64832c2f200021a60f1e743f64811c0f20001
            1922012000f03ffa00f001f800bf08b5062000f0a6f90120fff787ff00bf
            70b543f6841643f68415c0f20006c0f20005761bb61006d0002455f82430
            01349847a642f9d843f6841543f68816c0f20005c0f20006761b01f07ef9
            b61006d0002455f8243001349847a642f9d870bd032a2de9f0070bd83ab1
            002311f803c000f803c001339342f8d1bde8f007704782180c46034603e0
            14f8011c03f8011c03f003061946a44601330134002ef3d11cf003046346
            08bfc1eb020c68d06542c4f1040a0ceb050733464feaca0a5cf805604fea
            c408551a08e057f8044f264604fa0af449ea0404cc5004335c18032d26fa
            08f9a5f104050ceb0306eddc002302e0f15ce154013319199142f9d3bce7
            53f8404c41f8404c53f83c4c41f83c4c53f8384c41f8384c53f8344c41f8
            344c53f8304c41f8304c53f82c4c41f82c4c53f8284c41f8284c53f8244c
            41f8244c53f8204c41f8204c53f81c4c41f81c4c53f8184c41f8184c53f8
            144c41f8144c53f8104c41f8104c53f80c4c41f80c4c53f8084c41f8084c
            53f8044c41f8044c1c460d4640334031bcf13f0facf1400cb6dc21462b46
            541b0fe051f8105c43f8105c51f80c5c43f80c5c51f8085c43f8085c51f8
            045c43f8045c0f2c0d469c4601f1100103f11003a4f11004e5dccceb0201
            002303e0ec584cf8034004335e19032903eb0c04a1f10401f4dc7fe700bf
            70b5044688b104f1480253685d1e07d4023302eb830656f8043d9847013d
            fad5a36a0bb12046984770bd40f22403c2f200031c68e7e700bf70b50c46
            0968054609b1fff7f9ff28462146bde8704000f07db900bf40f22403c2f2
            000370b51b680546984246d0436a1946bbb1da68aab10026915941b10c68
            284600f067f92146002cf8d16b6ada6804363c2e01d0da68efe711462846
            00f059f9696a096811b1284600f053f9696911b1284600f04ef9696a11b1
            284600f049f9a96b11b1284600f044f9e96b11b1284600f03ff9296c11b1
            284600f03af9ab6cd3f8881011b1284600f033f9696b11b1284600f02ef9
            ab6903b970bdab6a28469847d5f8d8100029f7d02846bde8704095e71f29
            70b50c46054620d8426ca2b152f821308bb1012b0dd0b3f1ff3f06d00846
            002542f821509847284670bd16230360012070bd002070bd284600f087f8
            224601462846bde8704000f082b8162303604ff0ff3070bd00bf40f22403
            0146c2f200031868cce700bf38b5456c04460db1002038bd802100f0c3f9
            606428b12b4643510435802dfbd1f2e7013838bd00bf40f22403c2f20003
            1868e5e71f2910b5044682b012d8426ccab152f8213002eb810283b1b3f1
            ff3f0fd0012b09d00846002414609847204602b010bd4ff0ff30fae70320
            f8e70120f6e70220f4e70191fff7c2ff01990028f0d1626cdde700bf40f2
            24030146c2f200031868cee700bf1f2910b5044682b007d8436c53b153f8
            210043f8212002b010bd162303604ff0ff30f8e701910092fff79eff0199
            009a08b9636cebe74ff0ff30ece740f224030a46c2f2000301461868d9e7
            fff77abd38b542f64434c2f2000405460846114600232360fff772fdb0f1
            ff3f00d038bd2368002bfbd02b6038bd00bf10b440f22404c2f200048c46
            134601466246206810bcfff795bd00bff8b540f21814c2f200040f460546
            00f0fdfba3685e6826f0030606f57e630f33df1b3f0b013f3f03b7f5805f
            07db0021284600f0effba368f318834204d0284600f0e6fb0020f8bd7942
            284600f0e2fbb0f1ff3f10d0a26840f24453c2f20003f61b46f001062846
            56601a68d71b1f6000f0cefb0120f8bd0021284600f0cafba368c21a0f2a
            dadd40f2205440f24451c2f20004c2f2000142f001022468001b08605a60
            cbe700bf2de9f04105460c46002900f0888000f0a9fba4f1080240f21810
            5668c2f2000026f00103d0f808c0d1188c454f6827f0030700f0958016f0
            01064f605fd00026cc19646814f0010f06d1db19002e7ad08c68c9688c60
            e16043f00101d3505160002e47d1b3f5007f5bd3590a04299ebf4fea931c
            0cf1380c4feacc0428d914299cbf01f15b0c4feacc0421d954299ebf4fea
            133c0cf16e0c4feacc0418d9b1f5aa7f9ebf4fead33c0cf1770c4feacc04
            0ed940f2545c614595bf4fea934c4ff47c740cf17c0c4ff07e0c98bf4fea
            cc040419a168a14203d164e089688c4204d0486820f003008342f7d3cb68
            d3609160ca609a602846bde8f04100f035bb54f8084c00f1080c121b1b19
            9468644547d0d2f80cc0ccf80840c4f80cc090e7bde8f081db084ff0010c
            466800ebc3019b100cfa03f3d1608c6846ea030343609460e2608a60d6e7
            8c681c4fbc4281d1d35043f00103e260a26053609460d460c9e7fb1816f0
            010f07d154f8081c521a5b18d4689168a160cc6040f224518260c2f20001
            43f0010050600a689342b2d340f240532846c2f200031968fff7ddfea9e7
            01264de7012644684feaac0c0b4606fa0cfc44ea0c04446098e700bf2001
            00202de9f04f01f10b04162c83b006462fd8002310248c422cbf194643f0
            0101002930d1304600f0befab4f5fc7f2ed24fead40e40f21815c2f20005
            05ebce02d368934200f006825a6803f10805d968304622f0030c9a686344
            5c688a6044f00104d1605c6000f0a0fa284603b0bde8f08f24f00704e30f
            8c422cbf194643f001010029ced00c2300253360ede75fea542e04bf4fea
            d40e4feace0040f0908040f21815c2f200052818c368984206d10de0002a
            80f26f81db68984207d0596821f003010a1b0f2af3dd0ef1ff3e0ef1010e
            40f21817c2f2000707f108018b68994208bf7a6826d05a6822f0030cc4eb
            0c020f2a00f39481002ac960896080f29980bcf5007f80f065814feadc0c
            4ff0010a7a6807ebcc004feaac0c0afa0cfcd860d0f808804cea02027a60
            c3f80880c8f80c3083604ff0010c4feaae030cfa03fc944500f2828012ea
            0c0f08d12ef0030e4fea4c0c0ef1040e12ea0c0ff8d007ebce09f246c846
            d8f80c30984507d168e1002a80f27881db68984500f06281586820f00300
            021b0f2af2dd1d461f19d3f80cc044f0010e55f8084f3046ba5042f00102
            c3f804e0ccf80840c4f80cc08f60cf607a60b960f96000f0f6f954e7bef1
            040f9ebf4fea941e0ef1380e4feace007ff665afbef1140f9cbf0ef15b0e
            4feace007ff65cafbef1540f9ebf4fea143e0ef16e0e4feace007ff651af
            bef5aa7f9ebf4fead43e0ef1770e4feace007ff646af40f254539e4595bf
            4fea944e4ff47c700ef17c0e4ff07e0e98bf4feace0035e703eb0c0203f1
            08053046536843f00103536000f0b0f90ee7d7f80880d8f8043023f00309
            c4eb09024c4594bf002301230f2ad8bf43f00103002b00f0a18040f2405b
            d5f80824c2f2000bdbf8003010331b19b2f1ff3f06d003f57e631f3323f4
            7e6323f01f0319463046019300f085f9019bb0f1ff3f824600f0f48008eb
            0901814200f2ec80dbf804209a185145cbf8042000f04581d5f8085440f2
            1810c2f20000b5f1ff3f08bfc0f808a403d05244511acbf804101af00705
            304617bfc5f108054ff48055aa4405f5805553441b051b0ded1a294600f0
            50f9b0f1ff3f00f02c81caeb0001491941f00101dbf8042040f24053c7f8
            08a0c2f20003aa18b845cbf80420caf8041017d0b9f10f0f40f2df80a9f1
            0c01052521f0070108eb01000f2985604560d8f8040000f0010041ea0000
            c8f8040000f2ac80d04640f24053dbf82c10c2f200038a42dbf8301088bf
            da6240f24053c2f200038a4288bf1a6382e05c189a68d9683046666803f1
            08058a6046f00103d160636000f0fcf85ae608eb040342f0010244f00104
            3046c8f8044008f108055a60bb6000f0ecf84ae64fea5c22042a54d9142a
            00f289805b324feac208a84440f21817c2f20007d8f80800404503d16fe0
            8068804504d0426822f003029445f7d3d0f80cc0c3f80cc098607a68c360
            ccf808308ae61f19304644f00104cf605c6003f10805ba5042f001028f60
            7a60b960f96000f0b4f812e60af1010a1af0030f5fd003f1080889e603f1
            0802d3689a4208bf0ef1020e3ff436aeefe51d461918da68304655f8083f
            4c68936044f00104da604c6000f093f8f1e54fea9c1238324feac208aae7
            b8453ff411afd7f80880d8f8042022f00302944294bf00230123121b0f2a
            d8bf43f00103002b3ff47caf3046002500f073f8d1e508f1080130460193
            fff7b8fc019bd7f808805a6849e74ff0010ad7f80480921084460afa02f2
            48ea02027a608de7542a24d84fea1c326e324feac20871e70123d046caf8
            0430c6e74a461ef0030f13460ef1ff3e33d053f808299a42f5d07b684fea
            4c0c9c453ff68eaebcf1000f3ff48aae1cea030f27d0d6460ee6b2f5aa7f
            15d84feadc3277324feac20849e70805000d00287ff4b6aed7f808804b44
            43f00103c8f8043000e701210025d5e640f2545082420dd94ff47c787e22
            31e77b6823ea0c037b60cbe74fea4c0c0af1040acfe74fea9c427c324fea
            c20821e700bf704700bf704700bf38b542f64434c2f20004054608460023
            2360fff781f9b0f1ff3f00d038bd2368002bfbd02b6038bd0048548dc4a9
            000023102030080000004500011c00000000ff110000c0a80102c0a80101
            bffffb070108000020002100220023002400250026002700280029002a00
            2b002c002d002e002f003000310032003300340035003600370038003900
            3a003b003c003d003e003f000030014004300140083001400c3001401030
            014014300140183001401c3001402030014024300140283001402c300140
            3030014034300140383001403c3001404030014044300140483001404c30
            01405030014054300140583001405c300140603001406430014068300140
            6c3001407030014074300140783001407c30014000000000963007772c61
            0eeeba51099919c46d078ff46a7035a563e9a395649e3288db0ea4b8dc79
            1ee9d5e088d9d2972b4cb609bd7cb17e072db8e7911dbf906410b71df220
            b06a4871b9f3de41be847dd4da1aebe4dd6d51b5d4f4c785d38356986c13
            c0a86b647af962fdecc9658a4f5c0114d96c0663633d0ffaf50d088dc820
            6e3b5e10694ce44160d5727167a2d1e4033c47d4044bfd850dd26bb50aa5
            faa8b5356c98b242d6c9bbdb40f9bcace36cd832755cdf45cf0dd6dc593d
            d1abac30d9263a00de518051d7c81661d0bfb5f4b42123c4b3569995bacf
            0fa5bdb89eb802280888055fb2d90cc624e90bb1877c6f2f114c6858ab1d
            61c13d2d66b69041dc760671db01bc20d2982a10d5ef8985b1711fb5b606
            a5e4bf9f33d4b8e8a2c9077834f9000f8ea8099618980ee1bb0d6a7f2d3d
            6d08976c6491015c63e6f4516b6b62616c1cd83065854e0062f2ed95066c
            7ba5011bc1f4088257c40ff5c6d9b06550e9b712eab8be8b7c88b9fcdf1d
            dd62492dda15f37cd38c654cd4fb5861b24dce51b53a7400bca3e230bbd4
            41a5df4ad795d83d6dc4d1a4fbf4d6d36ae96943fcd96e34468867add0b8
            60da732d0444e51d03335f4c0aaac97c0ddd3c710550aa41022710100bbe
            86200cc925b56857b3856f2009d466b99fe461ce0ef9de5e98c9d9292298
            d0b0b4a8d7c7173db359810db42e3b5cbdb7ad6cbac02083b8edb6b3bf9a
            0ce2b6039ad2b1743947d5eaaf77d29d1526db048316dc73120b63e3843b
            64943e6a6d0da85a6a7a0bcf0ee49dff099327ae000ab19e077d44930ff0
            d2a3088768f2011efec206695d5762f7cb67658071366c19e7066b6e761b
            d4fee02bd3895a7ada10cc4add676fdfb9f9f9efbe8e43beb717d58eb060
            e8a3d6d67e93d1a1c4c2d83852f2df4ff167bbd16757bca6dd06b53f4b36
            b248da2b0dd84c1b0aaff64a0336607a0441c3ef60df55df67a8ef8e6e31
            79be69468cb361cb1a8366bca0d26f2536e2685295770ccc03470bbbb916
            02222f260555be3bbac5280bbdb2925ab42b046ab35ca7ffd7c231cfd0b5
            8b9ed92c1daede5bb0c2649b26f263ec9ca36a750a936d02a906099c3f36
            0eeb8567077213570005824abf95147ab8e2ae2bb17b381bb60c9b8ed292
            0dbed5e5b7efdc7c21dfdb0bd4d2d38642e2d4f1f8b3dd686e83da1fcd16
            be815b26b9f6e177b06f7747b718e65a0888706a0fffca3b06665c0b0111
            ff9e658f69ae62f8d3ff6b6145cf6c1678e20aa0eed20dd75483044ec2b3
            0339612667a7f71660d04d476949db776e3e4a6ad1aedc5ad6d9660bdf40
            f03bd83753aebca9c59ebbde7fcfb247e9ffb5301cf2bdbd8ac2baca3093
            b353a6a3b4240536d0ba9306d7cd2957de54bf67d9232e7a66b3b84a61c4
            021b685d942b6f2a37be0bb4a18e0cc31bdf055a8def022d556e6b6e6f77
            6e206572726f720000004e6f206572726f72206f63637572656400000000
            00000000000000000000000000000000000000004d6574686f6420666169
            6c6564000000000000000000000000000000000000000000000000000000
            57726f6e6720706172616d6574657220706173656420746f2066756e6374
            696f6e000000000000004672616d6520697320746f6f206c6f6e67000000
            00000000000000000000000000000000000000004e6f7420656e6f756768
            20737061636520696e206275666665720000000000000000000000000000
            4e6f7420656e6f75676820737061636520696e2062756666657200000000
            0000000000000000000054696d6564206f75740000000000000000000000
            00000000000000000000000000000000000000004672616d652069732074
            6f6f20736d616c6c00000000000000000000000000000000000000000000
            c0b13c888888000001000000020000000400000001000000486561702061
            6e6420737461636b20636f6c6c6973696f6e0a0000002800002043000000
            f8b500bff8bc08bc9e467047f8b500bff8bc08bc9e467047750400006104
            0000000000000000000040787d01105e5f00105e5f00105e5f00105e5f00
            40787d013c05002028000020000000000000000000000000000000000000
            000000000000000000000000000068390000000000000000000000000000
            000000000000000000000000000000000000000000000000000000000000
            000000000000000000000000000000000000000000000000000000000000
            000000000000000000000000000000000000000000000000000000000000
            000000000000000000000000000000000000000000000000000000000000
            000000000000000000000000000000000000000000000000000000000000
            000000000000000000000000000000000000000000000000000000000000
            000000000000000000000000000000000000000018010020180100202001
            002020010020280100202801002030010020300100203801002038010020
            400100204001002048010020480100205001002050010020580100205801
            002060010020600100206801002068010020700100207001002078010020
            780100208001002080010020880100208801002090010020900100209801
            002098010020a0010020a0010020a8010020a8010020b0010020b0010020
            b8010020b8010020c0010020c0010020c8010020c8010020d0010020d001
            0020d8010020d8010020e0010020e0010020e8010020e8010020f0010020
            f0010020f8010020f8010020000200200002002008020020080200201002
            002010020020180200201802002020020020200200202802002028020020
            300200203002002038020020380200204002002040020020480200204802
            002050020020500200205802002058020020600200206002002068020020
            680200207002002070020020780200207802002080020020800200208802
            00208802002090020020900200209802002098020020a0020020a0020020
            a8020020a8020020b0020020b0020020b8020020b8020020c0020020c002
            0020c8020020c8020020d0020020d0020020d8020020d8020020e0020020
            e0020020e8020020e8020020f0020020f0020020f8020020f80200200003
            002000030020080300200803002010030020100300201803002018030020
            200300202003002028030020280300203003002030030020380300203803
            002040030020400300204803002048030020500300205003002058030020
            580300206003002060030020680300206803002070030020700300207803
            002078030020800300208003002088030020880300209003002090030020
            9803002098030020a0030020a0030020a8030020a8030020b0030020b003
            0020b8030020b8030020c0030020c0030020c8030020c8030020d0030020
            d0030020d8030020d8030020e0030020e0030020e8030020e8030020f003
            0020f0030020f8030020f803002000040020000400200804002008040020
            100400201004002018040020180400202004002020040020280400202804
            002030040020300400203804002038040020400400204004002048040020
            480400205004002050040020580400205804002060040020600400206804
            002068040020700400207004002078040020780400208004002080040020
            880400208804002090040020900400209804002098040020a0040020a004
            0020a8040020a8040020b0040020b0040020b8040020b8040020c0040020
            c0040020c8040020c8040020d0040020d0040020d8040020d8040020e004
            0020e0040020e8040020e8040020f0040020f0040020f8040020f8040020
            000500200005002008050020080500201005002010050020ffffffff0000
            0200
            <crc>
                b2c5
            </crc>
        </region>
        <region name="ACTEL_SYSTEM_BOOT" address="0x081100" retrieveAddressFromFile="false" size="5632" format="HEX" type="Data Storage" wordSize="32" numberWords="1408" memFile="" memType="" memFileTimeStamp="" clientType="private" program="true">
            00040020f917086005180860271708600d18086011180860151808604143
            544c2a1108608008086083080860191808601d1808600000000021180860
            251808606404025380b500f0f7fadff86005016841f004010160c16841f0
            0401c160816941f004018161dff84805dff848150978c90601684ebf41f0
            010149084900016001bd80b500f06af8dff82c05816841f0020181600168
            41f001010160dff81c05016841f00101016001bdf0b4dff81005dff81015
            dff810251278cb7803f080031a43027500220277dff800351c460d78c5f3
            410504eb450595f82460067095f8255005710d78c5f3411504eb450595f8
            2c60067295f82d5005735608cf787d0747bf4ff0000c01254ff0010c0025
            3f0746bf012745f00205002703eb860606eb4c06be1996f8846006740576
            11f8015b80f8205011f8015b80f8245011f8015b80f8285011f8015b80f8
            2c50521c00f230001034062abad3f0bc704710b5044611b100f02ffb08b3
            dff86404006840694ff4fa41b0fbf1f000eb8001c800844214d2dff85014
            0a6842f040520a60dff84814001b486000208860012008600868c003fcd5
            002008604860886010bd000070b594b0044600a80ff22c416cc96cc00ff2
            3441402200f074fb002004f00f0300a95d5cc4f3011251005e1f042e38bf
            491c062d70d8dfe805f00419283a4a556c00dff8d02312f82120c2f34102
            dff8cc3303eb411101eb820101f2900100295ed060064cbf4888088859e0
            dff8a42312f82120c2f34112dff8a03303eb411101eb820101f2a001e9e7
            dff89023dff8843303eb81035b78db0747bf02ebc10101f2b01102eb8101
            01f28011d7e7db4ad84b03eb81039b78db0747bf02ebc10101f2b41102eb
            810101f29811c7e704a951f82310d14b03eb021202eb810101f2e011bce7
            cb4b03eb8101cb7803f00403c97801f0080103b1012301b10121c74d05eb
            021202ebc30202eb810101f25011a5e7c648008803e0610648bf4ff40040
            14b070bd2de9f04f8db0044600220023cde90423cde90623cde90823cde9
            0a23002900f04e818a462088410505d500f07f00fff755ff064617e08005
            800d4ff4007188420edb4ff44071884207db00f0030004a901ebc000d0e9
            006706e0ac48066802e0ab4951f82060002701200021a27800f0e1fa401e
            61f1000130403940cde90001a088410505d500f07f00fff727ff064617e0
            8005800d4ff4007188420edb4ff44071884207db00f0030004a901ebc000
            d0e9006706e09548066802e0944951f82060002794f80680012000214246
            00f0b1fa401e61f1000106400f40e07818b102284cd004d394e030463946
            454693e094f80290c8451cd202220223b8f1110f28bf0422b8f1210f28bf
            921cb9f1110f28bf0423b9f1210f28bf9b1c30463946a9eb0805eb1ad218
            00f084fa06460f461fe0c1451dd202220223b9f1110f28bf0422b9f1210f
            28bf921cb8f1110f28bf0423b8f1210f28bf9b1cdde90001a8eb0905eb1a
            d21800f065facde90001454600e04d46dde90001801979414ce0a07808eb
            00058df80880b3468046dde90091a8f101000121814001ea090131fa00f6
            09d001200021424600f044fa401e80ea090000f101099df80800401e0121
            814001ea0b0131fa00f70ad0012000219df8082000f02ffa401e80ea0b00
            00f1010b5946484600f038fa97ea060f14d006460f46012000219df80820
            424400f01afa401e61f1000170407940401c41f1000102e0002500200146
            e679ae421fd202220223112e28bf0422212e28bf921c112d28bf0423212d
            28bf9b1cad1beb1ad21800f010fa05460f4601200021324600f0f1f9401e
            61f100012840394004e0b5423cbf721b00f0e6f922889205920d0123b340
            5b1e4ff40075aa4209d2244d55f8225025ea03031843214941f8220011e0
            4ff44075aa4206d21c4a12689a4310431a49086006e002f0030204ab03eb
            c202c2e900010834baf1010a7ff4b3ae0db0bde8f08f0d480068d0f8a800
            410d0003000b40f0c04093e6901402400c000240831e0860040002400414
            024004020240801e0860300008601000086094100860382004e010e000e0
            2c0008601014024000180240070001020300010203040404040706050000
            000000000000000000000000000000000000000000000000000000000000
            000000000000000001000000020000000300000000000000000000000000
            000013481449a1eb0001a0f10100adeb0102a2f1040202f1010204b4a2f1
            01024fea51010388138000f1020002f10202a1f101010029f5d108480849
            00bd0123036001e0a1f101010029fbd1704700bf0000750e0860850e0860
            8c0140429a0200002de9f8434ff0000867480068009000f07cf88146654c
            25684ff400602060b9f1000f08bf00f04cf900f0c6f900f0fbf900f009fa
            00f01ffa5d4e5e48c17cf16301693164416971645b4f3968a1f1c0415a4a
            91420cd239680968b160c17849093a68d27802f01f0252ea4111716003e0
            c17871600168b1608178c1f3001131608168f16041687161c17a3161017b
            f166417bb161c1894a4a1160c17e7167817eb167008bf06700f00ffa306b
            454908407968454a114008433063fff777fcfff7a8fc00f056fafff71bff
            7868c0030dd4306b20f4803030637868000306d500f03ff88046306b40f4
            0020306349464046fff77bfc3548c168c90744bf344901602560bde8f143
            00f0f5ba00203149096809010909304a891a07d0304a891a04d02f490968
            890748bf012070472948006800f0704100010009274a801a06d04ff48912
            801a07d0274a801a07d1b1f1a04f8041c00f7047b1f1405ff9e700207047
            00b52148006821490968a1fb0001400940eac16049091e4a002300f0cffa
            401c1c490a6842f040520a601b49486000228a6001220a600a68d203fcd5
            00220a604a608a6000bd00002a11086008ed00e0002004e0b01e0860341f
            0860008208009c2004e00000f9ffffff06000c60004042de15ac30020860
            cf31a10530ce5e0a1c2004e030ae4d0aac1e08603c1f086040420f003820
            04e010e000e0981e08604ab38b0707d0521e11f8013b00f8013b21d08b07
            f7d183071ed1103a07d330b4b1e83810103aa0e83810f9d230bc530724bf
            b1e80810a0e8081044bf51f8043b40f8043bd20724bf31f8022b20f8022b
            44bf0b7803707047083a07d3b1e80810083a40f8043b40f804cbf7d25307
            e4e7d2b2203a22bf00fa02f1002070475242d041d2f1200291404140d040
            904041407047fc260cb5a0fb0123194610460cbdd2b2203a22bf21fa02f0
            002170472032d141d04048409140d1404840704700002de9f04184b00020
            adf80000b0223649bdf8000000f0b0faadf800003348056805f2a804bdf8
            0000e189884218bf00f0b9fa0020adf8000018222d49bdf8000000f09afa
            adf80000bdf80000a189884218bf00f0a7fa0020adf800006068254e010d
            ca00304040f0c041bdf8000000f083faadf8000000f0f1f880460027b8f1
            000f0fd001aa02a9384600f0edf8019a0299bdf8000000f06ffaadf80000
            7f1c4745efd3bdf800006189884218bf00f079fa0020adf80000d5f8a800
            010d8a00304040f0c041bdf8000000f055faadf80000bdf8000021898842
            18bf00f062fa04b0bde8f08100bf981e086094100860801e0860ffff0f00
            10b43a4842683a4909683a4b1a404b68394c23401a4342608a6882600268
            44f240031a4302600268344b1a400b68344c23401a4302600268324b1a40
            0260ca68c36862f30403c36009694ff4405211420bd0016821f480410160
            016841f480410160016821f48041016010bc704726484168002902d5c168
            c907fcd51c4909684968090e026861f31b62026070471848006816494268
            120c4b6862f316434b600a6842f480020a600068000c0a6860f315420a60
            086820f48000086070470c4800681249026943f6fe731a404a620269c2f3
            82424a600269c2f343520a6040696422b0fbf2f04861704700004c2004e0
            9410086000007f0fffff80f040407f00bfbf80ffbfbfffff502004e02420
            04e0f0b400201149532240f2ff334509a0eb45140f4e366806eb850504f1
            0a06202e3cbf6d6b25fa04f407d3ae6bc4f12007be406d6b25fa04f43443
            1c4041f8044b0a30521ee2d1f0bc704700bf002104e0941008603f480068
            d0f8ac00000d704730b43d4b3b4c2468d4f8ac401c4044f0c04454f83050
            04ebc00040682b4043f0c0430b60290d05f0030310f0030002d0022805d0
            06d2581c4843106030bc7047581df9e730bc00f079b938b529480068d0f8
            ac00040d0ad02749084040f0c045d5e9000100f004f80835641ef8d131bd
            38b5050d204a024042f0c0448a08920001f0030310f0030004d0012808d0
            03280cd02ce02946204601b0bde830402de02946204601b0bde830405be0
            bbb1022b01d00bd31be0002d1bd02068800880006168016008346d1ef7d1
            31bd002d10d054f8040b42f8040b6d1ef9d131bd002d07d054f8040b1060
            6d1efad131bd00f025f931bd94100860fcff0f0070b51bb1022b10d007d3
            2ae059b310f8013b1370491efad170bd21b310f8013b02f8043b491ef9d1
            70bd026892089200031dc1b113f8054b147000f205008208920000f00304
            1568e600f54052f8046fe200c2f1200206fa02f22a43491ee9d170bd00f0
            edf870bd70b51bb1022b10d007d32ae059b330f8023b1380491efad170bd
            21b330f8023b22f8043b491ef9d170bd026892089200031dc1b133f8064b
            148000f206008208920000f003041568e600f54052f8046fe200c2f12002
            06fa02f22a43491ee9d170bd00f0b9f870bd034a12681068d2f804e080f3
            0888704708ed00e013f0004c03d55b42524263f100039cea210c15d11b42
            29d109424cd12ab18446b0fbf2f002fb10c2704700f0e7b8fcd300220023
            70470b00020000210020704710b5644603d34942404261f10001fff7e1ff
            640004d34942404261f10001244203d55b42524263f1000310bd904271eb
            030ce0d370b5b1fa81f4b3fa83f52c1ba340c4f1200532fa05f63343a240
            5ff00046e64002e05b085fea3202841a71eb030524bf204629467641f4d3
            02000b003000002170bd012ab9d970b5140c20d0b1fa81f4b2fa82f5c4f1
            20046419b4f12006d6d3b2405ff00044f440002502e052085fea3303c61a
            71eb020e24bf3046714664416d41f3d302000b002000290070bd0c46b1fb
            f2f102fb11452d0445ea1045b5fbf2f402fb145580b240ea0545b5fbf2f0
            02fb105240ea044070bd000030b46ab1084b521e80b20412a4b211f8015b
            6c4033f8144084ea0020002af2d180b230bc704700bf0006086030b41448
            144901600ff2540013494ff00052002314468c42fbd21d5c04f8015b5b1c
            202bf7d30023f5e730b409480a4901600ff24c0009494ff0005200231446
            8c42fbd21d5c04f8015b5b1c202bf7d30023f5e710600040fa556e4c0010
            002053595320424f4f5420434f4e46494720444154412043524320464149
            4c4544002d2d2d2d53595354454d20424f4f542048415244204641554c54
            2d2d2d2d2d0070470000054909680029054800d0086880f308884ff00000
            7047000008ed00e000400020fff7eeff002801d0c046c0460020fff763fb
            00f000f880b500f002b800bf00000746384600f002f8fbe7000001491820
            abbefbe726000200c046c046c046c046fff7defffff7febffff78dbffff7
            febffff7febffff7febffff7febffff7febffff7febffff7febf00000000
            000000000000000000000000000000000000000000000000000000000000
            000000000000000000000000000000000000000000000000000000000000
            000000000000000000000000000000000000000000000000000000000000
            000000000000000000000000000000000000000000000000000000000000
            000000000000000000000000000000000000000000000000000000000000
            000000000000000000000000000000000000000000000000000000000000
            000000000000000000000000000000000000000000000000000000000000
            000000000000000000000000000000000000000000000000000000000000
            000000000000000000000000000000000000000000000000000000000000
            000000000000000000000000000000000000000000000000000000000000
            000000000000000000000000000000000000000000000000000000000000
            000000000000000000000000000000000000000000000000000000000000
            000000000000000000000000000000000000000000000000000000000000
            000000000000000000000000000000000000000000000000000000000000
            000000000000000000000000000000000000000000000000000000000000
            000000000000000000000000000000000000000000000000000000000000
            000000000000000000000000000000000000000000000000000000000000
            000000000000000000000000000000000000000000000000000000000000
            000000000000000000000000000000000000000000000000000000000000
            000000000000000000000000000000000000000000000000000000000000
            000000000000000000000000000000000000000000000000000000000000
            000000000000000000000000000000000000000000000000000000000000
            000000000000000000000000000000000000000000000000000000000000
            000000000000000000000000000000000000000000000000000000000000
            000000000000000000000000000000000000000000000000000000000000
            000000000000000000000000000000000000000000000000000000000000
            000000000000000000000000000000000000000000000000000000000000
            000000000000000000000000000000000000000000000000000000000000
            000000000000000000000000000000000000000000000000000000000000
            000000000000000000000000000000000000000000000000000000000000
            000000000000000000000000000000000000000000000000000000000000
            000000000000000000000000000000000000000000000000000000000000
            000000000000000000000000000000000000000000000000000000000000
            000000000000000000000000000000000000000000000000000000000000
            000000000000000000000000000000000000000000000000000000000000
            000000000000000000000000000000000000000000000000000000000000
            000000000000000000000000000000000000000000000000000000000000
            000000000000000000000000000000000000000000000000000000000000
            000000000000000000000000000000000000000000000000000000000000
            000000000000000000000000000000000000000000000000000000000000
            000000000000000000000000000000000000000000000000000000000000
            000000000000000000000000000000000000000000000000000000000000
            000000000000000000000000000000000000000000000000000000000000
            000000000000000000000000000000000000000000000000000000000000
            000000000000000000000000000000000000000000000000000000000000
            000000000000000000000000000000000000000000000000000000000000
            000000000000000000000000000000000000000000000000000000000000
            000000000000000000000000000000000000000000000000000000000000
            000000000000000000000000000000000000000000000000000000000000
            00000000000000000000000000000000000000000000
            <crc>
                fea4
            </crc>
        </region>
        <region name="ACTEL_AB_MSS_CONFIG" address="0x083e00" retrieveAddressFromFile="false" size="208" format="HEX" type="Data Storage" wordSize="32" numberWords="52" memFile="" memType="" memFileTimeStamp="" clientType="private" program="true">
            000000000000000000000000000000000000000000000000000001002645
            25e083490181000000000208200100e1f505010000d2000000000000001e
            1a0707000500100005001000f00f00002bacb0c20a2bacb0c20a2bacb0c2
            0a2bacb0c20a1860a080021828a0000018acb0c20a2bacb0c20a2bacb0c2
            0a2bacb0c20a2bacb0c20a2bacb0c20a2bacb0c20a2bacb0c20a2bacb0c2
            0a2bacb0c20a2bacb0c20a2bacb0c20a2bacb0c20a2bacb0c20a2bacb002
            00000000e8bf080090d0030000ff030088ff23000000a0a40000ac96
            <crc>
                5c9e
            </crc>
        </region>
        <region name="ACTEL_INIT_CONFIG" address="0x07fe00" retrieveAddressFromFile="false" size="152" format="HEX" type="Data Storage" wordSize="32" numberWords="38" memFile="" memType="" memFileTimeStamp="" clientType="private" program="true">
            000000000000000000000000000000000000000000000000000000000000
            000000000000000000000000000000000000000000000000000000000000
            000000000000000000000000000000000000000005000000050000000500
            000005000000050000000500000005000000050000000000000000000000
            000000000000000010600040fa556e4c03ff03020130014083ff13000200
            0000
            <crc>
                2432
            </crc>
        </region>
    </nvm>
</Actel_Data_File>
